Volume,Energy
108.02665466320666,-19.07185948
108.38714375898968,-19.07450704
108.74843394132299,-19.07711721
109.11052609931473,-19.0796903
109.47342112207326,-19.08222663
109.83711989870677,-19.08472654
110.20162331832358,-19.08719015
110.56693227003196,-19.08961787
110.93304764294015,-19.09200996
111.29997032615651,-19.09436673
111.66770120878918,-19.09668841
112.0362411799465,-19.0989754
112.40559112873677,-19.10122794
112.77575194426817,-19.10344614
113.146724515649,-19.1056304
113.5185097319876,-19.10778102
113.89110848239214,-19.10989822
114.26452165597091,-19.1119823
114.63875014183222,-19.11403364
115.0137948290843,-19.11605225
115.38965660683552,-19.11803858
115.76633636419399,-19.11999284
116.14383499026812,-19.12191529
116.52215337416605,-19.12380622
116.90129240499611,-19.12566586
117.28125297186659,-19.1274945
117.66203596388573,-19.12929237
118.0436422701618,-19.13105968
118.42607277980308,-19.13279673
118.80932838191798,-19.13450377
119.19340996561448,-19.13618103
119.578318420001,-19.13782876
119.96405463418581,-19.13944724
120.35061949727717,-19.14103671
120.73801389838334,-19.14259733
121.12623872661268,-19.14412939
121.51529487107331,-19.14563311
121.90518322087362,-19.14710878
122.29590466512178,-19.14855671
122.6874600929261,-19.14997694
123.07985039339485,-19.15136973
123.47307645563637,-19.15273535
123.8671391687588,-19.15407403
124.26203942187045,-19.15538604
124.65777810407964,-19.15667154
125.05435610449466,-19.15793083
125.45177431222366,-19.15916405
125.85003361637497,-19.16037148
126.24913490605695,-19.16155329
126.6490790703777,-19.16270973
127.04986699844558,-19.16384103
127.45149957936884,-19.16494738
127.85397770225578,-19.16602906
128.25730225621464,-19.1670862
128.66147413035384,-19.16811897
129.06649421378134,-19.16912765
129.4723633956056,-19.17011239
129.87908256493486,-19.17107347
130.2866526108774,-19.17201106
130.6950744225415,-19.17292538
131.10434888903538,-19.17381663
131.5144768994674,-19.17468498
131.9254593429458,-19.17553067
132.33729710857872,-19.17635389
132.74999108547456,-19.17715482
133.16354216274152,-19.17793368
133.57795122948792,-19.17869077
133.99321917482203,-19.17942603
134.40934688785214,-19.18013977
134.82633525768642,-19.18083217
135.24418517343327,-19.18150345
135.66289752420082,-19.18215388
136.08247319909742,-19.18278345
136.50291308723132,-19.18339246
136.92421807771083,-19.18398109
137.34638905964417,-19.18454951
137.7694269221396,-19.1850979
138.19333255430539,-19.18562646
138.61810684524983,-19.18613554
139.0437506840813,-19.18662495
139.47026495990784,-19.18709504
139.89765056183793,-19.18754599
140.32590837897968,-19.18797795
140.7550393004414,-19.18839116
141.1850442153314,-19.18878579
141.61592401275792,-19.18916204
142.04767958182924,-19.1895199
142.4803118116538,-19.18985968
142.91382159133954,-19.19018149
143.34820980999487,-19.19048555
143.7834773567281,-19.19077203
144.21962512064746,-19.19104104
144.65665399086123,-19.19129277
145.0945648564777,-19.19152738
145.5333586066052,-19.19174505
145.9730361303519,-19.1919459
146.413598316826,-19.19213013
146.8550460551359,-19.19229792
147.29738023438978,-19.19244934
147.74060174369598,-19.19258457
148.18471147216275,-19.1927038
148.6297103088984,-19.19280717
149.07559914301112,-19.19289483
149.5223788636092,-19.19296693
149.97005035980098,-19.19302375
150.41861452069458,-19.1930652
150.8680722353984,-19.19309151
151.3184243930207,-19.19310285
151.76967188266966,-19.1930994
152.22181559345358,-19.19308133
152.6748564144808,-19.19304869
153.1287952348595,-19.19300164
153.58363294369806,-19.19294038
154.0393704301047,-19.192865
154.4960085831876,-19.19277565
154.95354829205507,-19.19267256
155.41199044581543,-19.19255575
155.87133593357692,-19.19242537
156.33158564444778,-19.19228159
156.79274046753636,-19.19212452
157.254801291951,-19.19195433
157.71776900679973,-19.19177119
158.1816445011909,-19.19157514
158.64642866423284,-19.19136636
159.11212238503379,-19.19114496
159.57872655270202,-19.19091109
160.04624205634582,-19.1906649
160.51466978507352,-19.19040648
160.98401062799323,-19.19013601
161.45426547421337,-19.18985353
161.92543521284205,-19.18955923
162.39752073298766,-19.1892532
162.87052292375841,-19.1889356
163.34444267426267,-19.18860653
163.81928087360856,-19.18826621
164.29503841090445,-19.18791459
164.77171617525855,-19.18755189
165.24931505577928,-19.1871782
165.72783594157468,-19.18679367
166.2072797217531,-19.1863984
166.68764728542297,-19.18599258
167.16893952169232,-19.18557618
167.65115731966955,-19.18514941
168.1343015684629,-19.18471232
168.6183731571806,-19.18426511
169.10337297493106,-19.18380784
169.58930191082248,-19.18334063
170.076160853963,-19.18286362
170.56395069346098,-19.18237689
171.0526723184247,-19.18188057
171.54232661796243,-19.18137476
172.03291448118244,-19.18085958
172.524436797193,-19.18033517
173.01689445510243,-19.17980157
173.51028834401896,-19.17925888
174.00461935305074,-19.17870724
174.49988837130616,-19.17814676
174.99609628789347,-19.17757754
175.4932439919209,-19.17699976
175.9913323724968,-19.17641338
176.49036231872944,-19.17581854
176.99033471972697,-19.17521537
177.49125046459784,-19.17460399
177.9931104424501,-19.17398447
178.49591554239214,-19.17335699
178.99966665353222,-19.17272151
179.50436466497868,-19.17207819
180.01001046583966,-19.17142711
180.51660494522346,-19.17076841
181.02414899223837,-19.17010222
181.53264349599274,-19.16942848
182.04208934559472,-19.16874742
182.55248743015267,-19.16805908
183.0638386387747,-19.16736356
183.57614386056923,-19.16666097
184.0894039846445,-19.16595142
184.60361990010873,-19.16523502
185.11879249607023,-19.16451172
185.63492266163726,-19.16378173
186.1520112859183,-19.16304507
186.67005925802118,-19.16230189
187.18906746705443,-19.1615523
187.7090368021263,-19.16079631
188.22996815234504,-19.160034
188.75186240681893,-19.15926551
189.2747204546562,-19.15849091
189.79854318496527,-19.15771029
190.3233314868543,-19.1569238
190.84908624943145,-19.15613135
191.3758083618051,-19.15533311
191.9034987130835,-19.15452917
192.43215819237494,-19.15371962
192.96178768878775,-19.15290451
193.49238809143003,-19.15208396
194.02396028941018,-19.15125802
194.5565051718365,-19.15042679
195.0900236278171,-19.14959033
195.62451654646034,-19.14874871
196.1599848168745,-19.14790205
196.6964293281679,-19.14705037
197.2338509694487,-19.14619375
