#  E (eV)   dos(E)     Int dos(E) EFermi =    2.578 eV
 -16.773  0.0000E+00  0.0000E+00
 -16.763  0.9097E-01  0.3032E-03
 -16.753  0.3564E+00  0.2417E-02
 -16.743  0.5683E+00  0.7347E-02
 -16.733  0.5852E+00  0.1320E-01
 -16.723  0.6825E+00  0.1948E-01
 -16.713  0.7972E+00  0.2688E-01
 -16.703  0.9145E+00  0.3544E-01
 -16.693  0.1007E+01  0.4509E-01
 -16.683  0.1052E+01  0.5540E-01
 -16.673  0.1101E+01  0.6617E-01
 -16.663  0.1160E+01  0.7746E-01
 -16.653  0.1230E+01  0.8940E-01
 -16.643  0.1301E+01  0.1021E+00
 -16.633  0.1372E+01  0.1154E+00
 -16.623  0.1450E+01  0.1295E+00
 -16.613  0.1524E+01  0.1444E+00
 -16.603  0.1585E+01  0.1600E+00
 -16.593  0.1633E+01  0.1761E+00
 -16.583  0.1691E+01  0.1927E+00
 -16.573  0.1747E+01  0.2099E+00
 -16.563  0.1802E+01  0.2276E+00
 -16.553  0.1864E+01  0.2459E+00
 -16.543  0.1936E+01  0.2649E+00
 -16.533  0.2010E+01  0.2847E+00
 -16.523  0.2086E+01  0.3051E+00
 -16.513  0.2162E+01  0.3264E+00
 -16.503  0.2234E+01  0.3484E+00
 -16.493  0.2303E+01  0.3710E+00
 -16.483  0.2367E+01  0.3944E+00
 -16.473  0.2437E+01  0.4184E+00
 -16.463  0.2518E+01  0.4432E+00
 -16.453  0.2605E+01  0.4688E+00
 -16.443  0.2697E+01  0.4953E+00
 -16.433  0.2791E+01  0.5227E+00
 -16.423  0.2889E+01  0.5511E+00
 -16.413  0.2993E+01  0.5805E+00
 -16.403  0.3103E+01  0.6110E+00
 -16.393  0.3217E+01  0.6426E+00
 -16.383  0.3368E+01  0.6755E+00
 -16.373  0.3769E+01  0.7110E+00
 -16.363  0.3917E+01  0.7504E+00
 -16.353  0.4083E+01  0.7904E+00
 -16.343  0.4263E+01  0.8322E+00
 -16.333  0.4467E+01  0.8758E+00
 -16.323  0.4725E+01  0.9217E+00
 -16.313  0.5033E+01  0.9704E+00
 -16.303  0.5464E+01  0.1023E+01
 -16.293  0.6280E+01  0.1082E+01
 -16.283  0.6716E+01  0.1147E+01
 -16.273  0.6961E+01  0.1216E+01
 -16.263  0.7041E+01  0.1286E+01
 -16.253  0.7226E+01  0.1357E+01
 -16.243  0.7985E+01  0.1432E+01
 -16.233  0.8968E+01  0.1517E+01
 -16.223  0.9218E+01  0.1609E+01
 -16.213  0.1102E+02  0.1709E+01
 -16.203  0.8182E+01  0.1800E+01
 -16.193  0.7470E+01  0.1878E+01
 -16.183  0.4532E+01  0.1941E+01
 -16.173  0.2442E+01  0.1974E+01
 -16.163  0.1714E+01  0.1994E+01
 -16.153  0.1396E+01  0.2010E+01
 -16.143  0.1183E+01  0.2022E+01
 -16.133  0.1064E+01  0.2034E+01
 -16.123  0.1080E+01  0.2044E+01
 -16.113  0.7093E+00  0.2054E+01
 -16.103  0.7587E+00  0.2061E+01
 -16.093  0.7701E+00  0.2069E+01
 -16.083  0.8110E+00  0.2077E+01
 -16.073  0.8533E+00  0.2085E+01
 -16.063  0.8970E+00  0.2094E+01
 -16.053  0.9464E+00  0.2103E+01
 -16.043  0.9999E+00  0.2113E+01
 -16.033  0.1053E+01  0.2123E+01
 -16.023  0.1105E+01  0.2134E+01
 -16.013  0.1158E+01  0.2145E+01
 -16.003  0.1212E+01  0.2157E+01
 -15.993  0.1261E+01  0.2169E+01
 -15.983  0.1320E+01  0.2182E+01
 -15.973  0.1394E+01  0.2196E+01
 -15.963  0.1476E+01  0.2210E+01
 -15.953  0.1715E+01  0.2226E+01
 -15.943  0.1875E+01  0.2244E+01
 -15.933  0.1973E+01  0.2264E+01
 -15.923  0.2124E+01  0.2284E+01
 -15.913  0.2288E+01  0.2306E+01
 -15.903  0.2474E+01  0.2330E+01
 -15.893  0.2700E+01  0.2356E+01
 -15.883  0.2955E+01  0.2384E+01
 -15.873  0.3230E+01  0.2415E+01
 -15.863  0.3566E+01  0.2449E+01
 -15.853  0.3947E+01  0.2486E+01
 -15.843  0.4331E+01  0.2528E+01
 -15.833  0.5297E+01  0.2577E+01
 -15.823  0.5942E+01  0.2633E+01
 -15.813  0.7047E+01  0.2697E+01
 -15.803  0.9056E+01  0.2776E+01
 -15.793  0.1283E+02  0.2883E+01
 -15.783  0.1533E+02  0.3030E+01
 -15.773  0.1059E+02  0.3165E+01
 -15.763  0.7622E+01  0.3254E+01
 -15.753  0.6255E+01  0.3323E+01
 -15.743  0.5583E+01  0.3382E+01
 -15.733  0.4545E+01  0.3433E+01
 -15.723  0.4024E+01  0.3476E+01
 -15.713  0.3601E+01  0.3514E+01
 -15.703  0.3276E+01  0.3548E+01
 -15.693  0.2987E+01  0.3579E+01
 -15.683  0.2745E+01  0.3608E+01
 -15.673  0.2566E+01  0.3634E+01
 -15.663  0.2395E+01  0.3659E+01
 -15.653  0.2227E+01  0.3682E+01
 -15.643  0.2066E+01  0.3704E+01
 -15.633  0.1796E+01  0.3725E+01
 -15.623  0.1692E+01  0.3742E+01
 -15.613  0.1596E+01  0.3758E+01
 -15.603  0.1510E+01  0.3774E+01
 -15.593  0.1439E+01  0.3789E+01
 -15.583  0.1385E+01  0.3803E+01
 -15.573  0.1332E+01  0.3816E+01
 -15.563  0.1273E+01  0.3829E+01
 -15.553  0.1209E+01  0.3842E+01
 -15.543  0.1140E+01  0.3854E+01
 -15.533  0.1075E+01  0.3865E+01
 -15.523  0.1015E+01  0.3875E+01
 -15.513  0.9639E+00  0.3885E+01
 -15.503  0.9263E+00  0.3894E+01
 -15.493  0.8970E+00  0.3904E+01
 -15.483  0.8610E+00  0.3912E+01
 -15.473  0.8201E+00  0.3921E+01
 -15.463  0.7790E+00  0.3929E+01
 -15.453  0.8752E+00  0.3938E+01
 -15.443  0.8695E+00  0.3947E+01
 -15.433  0.8652E+00  0.3956E+01
 -15.423  0.8704E+00  0.3964E+01
 -15.413  0.8944E+00  0.3973E+01
 -15.403  0.9262E+00  0.3982E+01
 -15.393  0.9656E+00  0.3992E+01
 -15.383  0.1022E+01  0.4002E+01
 -15.373  0.1112E+01  0.4012E+01
 -15.363  0.1227E+01  0.4024E+01
 -15.353  0.1368E+01  0.4037E+01
 -15.343  0.1867E+01  0.4053E+01
 -15.333  0.1897E+01  0.4072E+01
 -15.323  0.2019E+01  0.4091E+01
 -15.313  0.2388E+01  0.4114E+01
 -15.303  0.2780E+01  0.4139E+01
 -15.293  0.3282E+01  0.4169E+01
 -15.283  0.3631E+01  0.4205E+01
 -15.273  0.3829E+01  0.4242E+01
 -15.263  0.4213E+01  0.4282E+01
 -15.253  0.4700E+01  0.4326E+01
 -15.243  0.5217E+01  0.4376E+01
 -15.233  0.5990E+01  0.4432E+01
 -15.223  0.7317E+01  0.4498E+01
 -15.213  0.1132E+02  0.4589E+01
 -15.203  0.1753E+02  0.4730E+01
 -15.193  0.1684E+02  0.4896E+01
 -15.183  0.9527E+01  0.5032E+01
 -15.173  0.5842E+01  0.5103E+01
 -15.163  0.5054E+01  0.5157E+01
 -15.153  0.4436E+01  0.5204E+01
 -15.143  0.3955E+01  0.5246E+01
 -15.133  0.3559E+01  0.5283E+01
 -15.123  0.3279E+01  0.5318E+01
 -15.113  0.3091E+01  0.5349E+01
 -15.103  0.2920E+01  0.5379E+01
 -15.093  0.2766E+01  0.5408E+01
 -15.083  0.2623E+01  0.5435E+01
 -15.073  0.2490E+01  0.5460E+01
 -15.063  0.2365E+01  0.5485E+01
 -15.053  0.2255E+01  0.5508E+01
 -15.043  0.2156E+01  0.5530E+01
 -15.033  0.2075E+01  0.5551E+01
 -15.023  0.2004E+01  0.5571E+01
 -15.013  0.1935E+01  0.5591E+01
 -15.003  0.1869E+01  0.5610E+01
 -14.993  0.1806E+01  0.5628E+01
 -14.983  0.1745E+01  0.5646E+01
 -14.973  0.1684E+01  0.5663E+01
 -14.963  0.1625E+01  0.5680E+01
 -14.953  0.1563E+01  0.5696E+01
 -14.943  0.1512E+01  0.5711E+01
 -14.933  0.1470E+01  0.5726E+01
 -14.923  0.1429E+01  0.5740E+01
 -14.913  0.1388E+01  0.5755E+01
 -14.903  0.1348E+01  0.5768E+01
 -14.893  0.1309E+01  0.5782E+01
 -14.883  0.1267E+01  0.5794E+01
 -14.873  0.1221E+01  0.5807E+01
 -14.863  0.1176E+01  0.5819E+01
 -14.853  0.1135E+01  0.5830E+01
 -14.843  0.1095E+01  0.5842E+01
 -14.833  0.1057E+01  0.5852E+01
 -14.823  0.1020E+01  0.5863E+01
 -14.813  0.9827E+00  0.5873E+01
 -14.803  0.9457E+00  0.5882E+01
 -14.793  0.9089E+00  0.5892E+01
 -14.783  0.8724E+00  0.5901E+01
 -14.773  0.8370E+00  0.5909E+01
 -14.763  0.8070E+00  0.5917E+01
 -14.753  0.7789E+00  0.5925E+01
 -14.743  0.7499E+00  0.5933E+01
 -14.733  0.7196E+00  0.5940E+01
 -14.723  0.6862E+00  0.5947E+01
 -14.713  0.6496E+00  0.5954E+01
 -14.703  0.6056E+00  0.5960E+01
 -14.693  0.5569E+00  0.5966E+01
 -14.683  0.5096E+00  0.5971E+01
 -14.673  0.5423E+01  0.5983E+01
 -14.663  0.2049E+02  0.6154E+01
 -14.653  0.2207E+02  0.6361E+01
 -14.643  0.1150E+03  0.6808E+01
 -14.633  0.2939E+02  0.7309E+01
 -14.623  0.3111E+02  0.7606E+01
 -14.613  0.5257E+02  0.7990E+01
 -14.603  0.6525E+02  0.8626E+01
 -14.593  0.5072E+02  0.9162E+01
 -14.583  0.4364E+02  0.9617E+01
 -14.573  0.9373E+02  0.1034E+02
 -14.563  0.5288E+02  0.1115E+02
 -14.553  0.3013E+02  0.1154E+02
 -14.543  0.1903E+02  0.1178E+02
 -14.533  0.1022E+02  0.1192E+02
 -14.523  0.4839E+01  0.1199E+02
 -14.513  0.0000E+00  0.1200E+02
 -14.503  0.0000E+00  0.1200E+02
 -14.493  0.0000E+00  0.1200E+02
 -14.483  0.0000E+00  0.1200E+02
 -14.473  0.0000E+00  0.1200E+02
 -14.463  0.0000E+00  0.1200E+02
 -14.453  0.0000E+00  0.1200E+02
 -14.443  0.0000E+00  0.1200E+02
 -14.433  0.0000E+00  0.1200E+02
 -14.423  0.0000E+00  0.1200E+02
 -14.413  0.0000E+00  0.1200E+02
 -14.403  0.0000E+00  0.1200E+02
 -14.393  0.0000E+00  0.1200E+02
 -14.383  0.0000E+00  0.1200E+02
 -14.373  0.0000E+00  0.1200E+02
 -14.363  0.0000E+00  0.1200E+02
 -14.353  0.0000E+00  0.1200E+02
 -14.343  0.0000E+00  0.1200E+02
 -14.333  0.0000E+00  0.1200E+02
 -14.323  0.0000E+00  0.1200E+02
 -14.313  0.0000E+00  0.1200E+02
 -14.303  0.0000E+00  0.1200E+02
 -14.293  0.0000E+00  0.1200E+02
 -14.283  0.0000E+00  0.1200E+02
 -14.273  0.0000E+00  0.1200E+02
 -14.263  0.0000E+00  0.1200E+02
 -14.253  0.0000E+00  0.1200E+02
 -14.243  0.0000E+00  0.1200E+02
 -14.233  0.0000E+00  0.1200E+02
 -14.223  0.0000E+00  0.1200E+02
 -14.213  0.0000E+00  0.1200E+02
 -14.203  0.0000E+00  0.1200E+02
 -14.193  0.0000E+00  0.1200E+02
 -14.183  0.0000E+00  0.1200E+02
 -14.173  0.0000E+00  0.1200E+02
 -14.163  0.0000E+00  0.1200E+02
 -14.153  0.0000E+00  0.1200E+02
 -14.143  0.0000E+00  0.1200E+02
 -14.133  0.0000E+00  0.1200E+02
 -14.123  0.0000E+00  0.1200E+02
 -14.113  0.0000E+00  0.1200E+02
 -14.103  0.0000E+00  0.1200E+02
 -14.093  0.0000E+00  0.1200E+02
 -14.083  0.0000E+00  0.1200E+02
 -14.073  0.0000E+00  0.1200E+02
 -14.063  0.0000E+00  0.1200E+02
 -14.053  0.0000E+00  0.1200E+02
 -14.043  0.0000E+00  0.1200E+02
 -14.033  0.0000E+00  0.1200E+02
 -14.023  0.0000E+00  0.1200E+02
 -14.013  0.0000E+00  0.1200E+02
 -14.003  0.0000E+00  0.1200E+02
 -13.993  0.0000E+00  0.1200E+02
 -13.983  0.0000E+00  0.1200E+02
 -13.973  0.0000E+00  0.1200E+02
 -13.963  0.0000E+00  0.1200E+02
 -13.953  0.0000E+00  0.1200E+02
 -13.943  0.0000E+00  0.1200E+02
 -13.933  0.0000E+00  0.1200E+02
 -13.923  0.0000E+00  0.1200E+02
 -13.913  0.0000E+00  0.1200E+02
 -13.903  0.0000E+00  0.1200E+02
 -13.893  0.0000E+00  0.1200E+02
 -13.883  0.0000E+00  0.1200E+02
 -13.873  0.0000E+00  0.1200E+02
 -13.863  0.0000E+00  0.1200E+02
 -13.853  0.0000E+00  0.1200E+02
 -13.843  0.0000E+00  0.1200E+02
 -13.833  0.0000E+00  0.1200E+02
 -13.823  0.0000E+00  0.1200E+02
 -13.813  0.0000E+00  0.1200E+02
 -13.803  0.0000E+00  0.1200E+02
 -13.793  0.0000E+00  0.1200E+02
 -13.783  0.0000E+00  0.1200E+02
 -13.773  0.0000E+00  0.1200E+02
 -13.763  0.0000E+00  0.1200E+02
 -13.753  0.0000E+00  0.1200E+02
 -13.743  0.0000E+00  0.1200E+02
 -13.733  0.0000E+00  0.1200E+02
 -13.723  0.0000E+00  0.1200E+02
 -13.713  0.0000E+00  0.1200E+02
 -13.703  0.0000E+00  0.1200E+02
 -13.693  0.0000E+00  0.1200E+02
 -13.683  0.0000E+00  0.1200E+02
 -13.673  0.0000E+00  0.1200E+02
 -13.663  0.0000E+00  0.1200E+02
 -13.653  0.0000E+00  0.1200E+02
 -13.643  0.0000E+00  0.1200E+02
 -13.633  0.0000E+00  0.1200E+02
 -13.623  0.0000E+00  0.1200E+02
 -13.613  0.0000E+00  0.1200E+02
 -13.603  0.0000E+00  0.1200E+02
 -13.593  0.0000E+00  0.1200E+02
 -13.583  0.0000E+00  0.1200E+02
 -13.573  0.0000E+00  0.1200E+02
 -13.563  0.0000E+00  0.1200E+02
 -13.553  0.0000E+00  0.1200E+02
 -13.543  0.0000E+00  0.1200E+02
 -13.533  0.0000E+00  0.1200E+02
 -13.523  0.0000E+00  0.1200E+02
 -13.513  0.0000E+00  0.1200E+02
 -13.503  0.0000E+00  0.1200E+02
 -13.493  0.0000E+00  0.1200E+02
 -13.483  0.0000E+00  0.1200E+02
 -13.473  0.0000E+00  0.1200E+02
 -13.463  0.0000E+00  0.1200E+02
 -13.453  0.0000E+00  0.1200E+02
 -13.443  0.0000E+00  0.1200E+02
 -13.433  0.0000E+00  0.1200E+02
 -13.423  0.0000E+00  0.1200E+02
 -13.413  0.0000E+00  0.1200E+02
 -13.403  0.0000E+00  0.1200E+02
 -13.393  0.0000E+00  0.1200E+02
 -13.383  0.0000E+00  0.1200E+02
 -13.373  0.0000E+00  0.1200E+02
 -13.363  0.0000E+00  0.1200E+02
 -13.353  0.0000E+00  0.1200E+02
 -13.343  0.0000E+00  0.1200E+02
 -13.333  0.0000E+00  0.1200E+02
 -13.323  0.0000E+00  0.1200E+02
 -13.313  0.0000E+00  0.1200E+02
 -13.303  0.0000E+00  0.1200E+02
 -13.293  0.0000E+00  0.1200E+02
 -13.283  0.0000E+00  0.1200E+02
 -13.273  0.0000E+00  0.1200E+02
 -13.263  0.0000E+00  0.1200E+02
 -13.253  0.0000E+00  0.1200E+02
 -13.243  0.0000E+00  0.1200E+02
 -13.233  0.0000E+00  0.1200E+02
 -13.223  0.0000E+00  0.1200E+02
 -13.213  0.0000E+00  0.1200E+02
 -13.203  0.0000E+00  0.1200E+02
 -13.193  0.0000E+00  0.1200E+02
 -13.183  0.0000E+00  0.1200E+02
 -13.173  0.0000E+00  0.1200E+02
 -13.163  0.0000E+00  0.1200E+02
 -13.153  0.0000E+00  0.1200E+02
 -13.143  0.0000E+00  0.1200E+02
 -13.133  0.0000E+00  0.1200E+02
 -13.123  0.0000E+00  0.1200E+02
 -13.113  0.0000E+00  0.1200E+02
 -13.103  0.0000E+00  0.1200E+02
 -13.093  0.0000E+00  0.1200E+02
 -13.083  0.0000E+00  0.1200E+02
 -13.073  0.0000E+00  0.1200E+02
 -13.063  0.0000E+00  0.1200E+02
 -13.053  0.0000E+00  0.1200E+02
 -13.043  0.0000E+00  0.1200E+02
 -13.033  0.0000E+00  0.1200E+02
 -13.023  0.0000E+00  0.1200E+02
 -13.013  0.0000E+00  0.1200E+02
 -13.003  0.0000E+00  0.1200E+02
 -12.993  0.0000E+00  0.1200E+02
 -12.983  0.0000E+00  0.1200E+02
 -12.973  0.0000E+00  0.1200E+02
 -12.963  0.0000E+00  0.1200E+02
 -12.953  0.0000E+00  0.1200E+02
 -12.943  0.0000E+00  0.1200E+02
 -12.933  0.0000E+00  0.1200E+02
 -12.923  0.0000E+00  0.1200E+02
 -12.913  0.0000E+00  0.1200E+02
 -12.903  0.0000E+00  0.1200E+02
 -12.893  0.0000E+00  0.1200E+02
 -12.883  0.0000E+00  0.1200E+02
 -12.873  0.0000E+00  0.1200E+02
 -12.863  0.0000E+00  0.1200E+02
 -12.853  0.0000E+00  0.1200E+02
 -12.843  0.0000E+00  0.1200E+02
 -12.833  0.0000E+00  0.1200E+02
 -12.823  0.0000E+00  0.1200E+02
 -12.813  0.0000E+00  0.1200E+02
 -12.803  0.0000E+00  0.1200E+02
 -12.793  0.0000E+00  0.1200E+02
 -12.783  0.0000E+00  0.1200E+02
 -12.773  0.0000E+00  0.1200E+02
 -12.763  0.0000E+00  0.1200E+02
 -12.753  0.0000E+00  0.1200E+02
 -12.743  0.0000E+00  0.1200E+02
 -12.733  0.0000E+00  0.1200E+02
 -12.723  0.0000E+00  0.1200E+02
 -12.713  0.0000E+00  0.1200E+02
 -12.703  0.0000E+00  0.1200E+02
 -12.693  0.0000E+00  0.1200E+02
 -12.683  0.0000E+00  0.1200E+02
 -12.673  0.0000E+00  0.1200E+02
 -12.663  0.0000E+00  0.1200E+02
 -12.653  0.0000E+00  0.1200E+02
 -12.643  0.0000E+00  0.1200E+02
 -12.633  0.0000E+00  0.1200E+02
 -12.623  0.0000E+00  0.1200E+02
 -12.613  0.0000E+00  0.1200E+02
 -12.603  0.0000E+00  0.1200E+02
 -12.593  0.0000E+00  0.1200E+02
 -12.583  0.0000E+00  0.1200E+02
 -12.573  0.0000E+00  0.1200E+02
 -12.563  0.0000E+00  0.1200E+02
 -12.553  0.0000E+00  0.1200E+02
 -12.543  0.0000E+00  0.1200E+02
 -12.533  0.0000E+00  0.1200E+02
 -12.523  0.0000E+00  0.1200E+02
 -12.513  0.0000E+00  0.1200E+02
 -12.503  0.0000E+00  0.1200E+02
 -12.493  0.0000E+00  0.1200E+02
 -12.483  0.0000E+00  0.1200E+02
 -12.473  0.0000E+00  0.1200E+02
 -12.463  0.0000E+00  0.1200E+02
 -12.453  0.0000E+00  0.1200E+02
 -12.443  0.0000E+00  0.1200E+02
 -12.433  0.0000E+00  0.1200E+02
 -12.423  0.0000E+00  0.1200E+02
 -12.413  0.0000E+00  0.1200E+02
 -12.403  0.0000E+00  0.1200E+02
 -12.393  0.0000E+00  0.1200E+02
 -12.383  0.0000E+00  0.1200E+02
 -12.373  0.0000E+00  0.1200E+02
 -12.363  0.0000E+00  0.1200E+02
 -12.353  0.0000E+00  0.1200E+02
 -12.343  0.0000E+00  0.1200E+02
 -12.333  0.0000E+00  0.1200E+02
 -12.323  0.0000E+00  0.1200E+02
 -12.313  0.0000E+00  0.1200E+02
 -12.303  0.0000E+00  0.1200E+02
 -12.293  0.0000E+00  0.1200E+02
 -12.283  0.0000E+00  0.1200E+02
 -12.273  0.0000E+00  0.1200E+02
 -12.263  0.0000E+00  0.1200E+02
 -12.253  0.0000E+00  0.1200E+02
 -12.243  0.0000E+00  0.1200E+02
 -12.233  0.0000E+00  0.1200E+02
 -12.223  0.0000E+00  0.1200E+02
 -12.213  0.0000E+00  0.1200E+02
 -12.203  0.0000E+00  0.1200E+02
 -12.193  0.0000E+00  0.1200E+02
 -12.183  0.0000E+00  0.1200E+02
 -12.173  0.0000E+00  0.1200E+02
 -12.163  0.0000E+00  0.1200E+02
 -12.153  0.0000E+00  0.1200E+02
 -12.143  0.0000E+00  0.1200E+02
 -12.133  0.0000E+00  0.1200E+02
 -12.123  0.0000E+00  0.1200E+02
 -12.113  0.0000E+00  0.1200E+02
 -12.103  0.0000E+00  0.1200E+02
 -12.093  0.0000E+00  0.1200E+02
 -12.083  0.0000E+00  0.1200E+02
 -12.073  0.0000E+00  0.1200E+02
 -12.063  0.0000E+00  0.1200E+02
 -12.053  0.0000E+00  0.1200E+02
 -12.043  0.0000E+00  0.1200E+02
 -12.033  0.0000E+00  0.1200E+02
 -12.023  0.0000E+00  0.1200E+02
 -12.013  0.0000E+00  0.1200E+02
 -12.003  0.0000E+00  0.1200E+02
 -11.993  0.0000E+00  0.1200E+02
 -11.983  0.0000E+00  0.1200E+02
 -11.973  0.0000E+00  0.1200E+02
 -11.963  0.0000E+00  0.1200E+02
 -11.953  0.0000E+00  0.1200E+02
 -11.943  0.0000E+00  0.1200E+02
 -11.933  0.0000E+00  0.1200E+02
 -11.923  0.0000E+00  0.1200E+02
 -11.913  0.0000E+00  0.1200E+02
 -11.903  0.0000E+00  0.1200E+02
 -11.893  0.0000E+00  0.1200E+02
 -11.883  0.0000E+00  0.1200E+02
 -11.873  0.0000E+00  0.1200E+02
 -11.863  0.0000E+00  0.1200E+02
 -11.853  0.0000E+00  0.1200E+02
 -11.843  0.0000E+00  0.1200E+02
 -11.833  0.0000E+00  0.1200E+02
 -11.823  0.0000E+00  0.1200E+02
 -11.813  0.0000E+00  0.1200E+02
 -11.803  0.0000E+00  0.1200E+02
 -11.793  0.0000E+00  0.1200E+02
 -11.783  0.0000E+00  0.1200E+02
 -11.773  0.0000E+00  0.1200E+02
 -11.763  0.0000E+00  0.1200E+02
 -11.753  0.0000E+00  0.1200E+02
 -11.743  0.0000E+00  0.1200E+02
 -11.733  0.0000E+00  0.1200E+02
 -11.723  0.0000E+00  0.1200E+02
 -11.713  0.0000E+00  0.1200E+02
 -11.703  0.0000E+00  0.1200E+02
 -11.693  0.0000E+00  0.1200E+02
 -11.683  0.0000E+00  0.1200E+02
 -11.673  0.0000E+00  0.1200E+02
 -11.663  0.0000E+00  0.1200E+02
 -11.653  0.0000E+00  0.1200E+02
 -11.643  0.0000E+00  0.1200E+02
 -11.633  0.0000E+00  0.1200E+02
 -11.623  0.0000E+00  0.1200E+02
 -11.613  0.0000E+00  0.1200E+02
 -11.603  0.0000E+00  0.1200E+02
 -11.593  0.0000E+00  0.1200E+02
 -11.583  0.0000E+00  0.1200E+02
 -11.573  0.0000E+00  0.1200E+02
 -11.563  0.0000E+00  0.1200E+02
 -11.553  0.0000E+00  0.1200E+02
 -11.543  0.0000E+00  0.1200E+02
 -11.533  0.0000E+00  0.1200E+02
 -11.523  0.0000E+00  0.1200E+02
 -11.513  0.0000E+00  0.1200E+02
 -11.503  0.0000E+00  0.1200E+02
 -11.493  0.0000E+00  0.1200E+02
 -11.483  0.0000E+00  0.1200E+02
 -11.473  0.0000E+00  0.1200E+02
 -11.463  0.0000E+00  0.1200E+02
 -11.453  0.0000E+00  0.1200E+02
 -11.443  0.0000E+00  0.1200E+02
 -11.433  0.0000E+00  0.1200E+02
 -11.423  0.0000E+00  0.1200E+02
 -11.413  0.0000E+00  0.1200E+02
 -11.403  0.0000E+00  0.1200E+02
 -11.393  0.0000E+00  0.1200E+02
 -11.383  0.0000E+00  0.1200E+02
 -11.373  0.0000E+00  0.1200E+02
 -11.363  0.0000E+00  0.1200E+02
 -11.353  0.0000E+00  0.1200E+02
 -11.343  0.0000E+00  0.1200E+02
 -11.333  0.0000E+00  0.1200E+02
 -11.323  0.0000E+00  0.1200E+02
 -11.313  0.0000E+00  0.1200E+02
 -11.303  0.0000E+00  0.1200E+02
 -11.293  0.0000E+00  0.1200E+02
 -11.283  0.0000E+00  0.1200E+02
 -11.273  0.0000E+00  0.1200E+02
 -11.263  0.0000E+00  0.1200E+02
 -11.253  0.0000E+00  0.1200E+02
 -11.243  0.0000E+00  0.1200E+02
 -11.233  0.0000E+00  0.1200E+02
 -11.223  0.0000E+00  0.1200E+02
 -11.213  0.0000E+00  0.1200E+02
 -11.203  0.0000E+00  0.1200E+02
 -11.193  0.0000E+00  0.1200E+02
 -11.183  0.0000E+00  0.1200E+02
 -11.173  0.0000E+00  0.1200E+02
 -11.163  0.0000E+00  0.1200E+02
 -11.153  0.0000E+00  0.1200E+02
 -11.143  0.0000E+00  0.1200E+02
 -11.133  0.0000E+00  0.1200E+02
 -11.123  0.0000E+00  0.1200E+02
 -11.113  0.0000E+00  0.1200E+02
 -11.103  0.0000E+00  0.1200E+02
 -11.093  0.0000E+00  0.1200E+02
 -11.083  0.0000E+00  0.1200E+02
 -11.073  0.0000E+00  0.1200E+02
 -11.063  0.0000E+00  0.1200E+02
 -11.053  0.0000E+00  0.1200E+02
 -11.043  0.0000E+00  0.1200E+02
 -11.033  0.0000E+00  0.1200E+02
 -11.023  0.0000E+00  0.1200E+02
 -11.013  0.0000E+00  0.1200E+02
 -11.003  0.0000E+00  0.1200E+02
 -10.993  0.0000E+00  0.1200E+02
 -10.983  0.0000E+00  0.1200E+02
 -10.973  0.0000E+00  0.1200E+02
 -10.963  0.0000E+00  0.1200E+02
 -10.953  0.0000E+00  0.1200E+02
 -10.943  0.0000E+00  0.1200E+02
 -10.933  0.0000E+00  0.1200E+02
 -10.923  0.0000E+00  0.1200E+02
 -10.913  0.0000E+00  0.1200E+02
 -10.903  0.0000E+00  0.1200E+02
 -10.893  0.0000E+00  0.1200E+02
 -10.883  0.0000E+00  0.1200E+02
 -10.873  0.0000E+00  0.1200E+02
 -10.863  0.0000E+00  0.1200E+02
 -10.853  0.0000E+00  0.1200E+02
 -10.843  0.0000E+00  0.1200E+02
 -10.833  0.0000E+00  0.1200E+02
 -10.823  0.0000E+00  0.1200E+02
 -10.813  0.0000E+00  0.1200E+02
 -10.803  0.0000E+00  0.1200E+02
 -10.793  0.0000E+00  0.1200E+02
 -10.783  0.0000E+00  0.1200E+02
 -10.773  0.0000E+00  0.1200E+02
 -10.763  0.0000E+00  0.1200E+02
 -10.753  0.0000E+00  0.1200E+02
 -10.743  0.0000E+00  0.1200E+02
