#  E (eV)   dos(E)     Int dos(E) EFermi =    2.581 eV
 -16.773  0.0000E+00  0.0000E+00
 -16.763  0.1177E+00  0.3924E-03
 -16.753  0.4422E+00  0.3080E-02
 -16.743  0.5398E+00  0.8189E-02
 -16.733  0.5972E+00  0.1372E-01
 -16.723  0.7196E+00  0.2029E-01
 -16.713  0.8446E+00  0.2812E-01
 -16.703  0.9316E+00  0.3706E-01
 -16.693  0.9771E+00  0.4659E-01
 -16.683  0.1031E+01  0.5662E-01
 -16.673  0.1103E+01  0.6728E-01
 -16.663  0.1177E+01  0.7868E-01
 -16.653  0.1252E+01  0.9082E-01
 -16.643  0.1332E+01  0.1037E+00
 -16.633  0.1404E+01  0.1174E+00
 -16.623  0.1454E+01  0.1317E+00
 -16.613  0.1508E+01  0.1465E+00
 -16.603  0.1564E+01  0.1619E+00
 -16.593  0.1618E+01  0.1778E+00
 -16.583  0.1681E+01  0.1943E+00
 -16.573  0.1751E+01  0.2114E+00
 -16.563  0.1823E+01  0.2293E+00
 -16.553  0.1896E+01  0.2479E+00
 -16.543  0.1962E+01  0.2672E+00
 -16.533  0.2027E+01  0.2871E+00
 -16.523  0.2083E+01  0.3077E+00
 -16.513  0.2145E+01  0.3288E+00
 -16.503  0.2215E+01  0.3506E+00
 -16.493  0.2288E+01  0.3731E+00
 -16.483  0.2363E+01  0.3964E+00
 -16.473  0.2440E+01  0.4204E+00
 -16.463  0.2520E+01  0.4452E+00
 -16.453  0.2603E+01  0.4708E+00
 -16.443  0.2688E+01  0.4973E+00
 -16.433  0.2793E+01  0.5247E+00
 -16.423  0.2895E+01  0.5531E+00
 -16.413  0.3002E+01  0.5826E+00
 -16.403  0.3113E+01  0.6132E+00
 -16.393  0.3231E+01  0.6449E+00
 -16.383  0.3364E+01  0.6778E+00
 -16.373  0.3513E+01  0.7122E+00
 -16.363  0.3685E+01  0.7482E+00
 -16.353  0.3892E+01  0.7860E+00
 -16.343  0.4123E+01  0.8261E+00
 -16.333  0.4397E+01  0.8686E+00
 -16.323  0.4708E+01  0.9141E+00
 -16.313  0.5058E+01  0.9629E+00
 -16.303  0.5443E+01  0.1015E+01
 -16.293  0.5771E+01  0.1071E+01
 -16.283  0.7711E+01  0.1133E+01
 -16.273  0.7243E+01  0.1208E+01
 -16.263  0.7422E+01  0.1281E+01
 -16.253  0.7682E+01  0.1357E+01
 -16.243  0.8080E+01  0.1435E+01
 -16.233  0.8726E+01  0.1519E+01
 -16.223  0.9608E+01  0.1611E+01
 -16.213  0.1063E+02  0.1712E+01
 -16.203  0.7938E+01  0.1802E+01
 -16.193  0.6726E+01  0.1873E+01
 -16.183  0.5491E+01  0.1942E+01
 -16.173  0.2623E+01  0.1978E+01
 -16.163  0.1662E+01  0.1999E+01
 -16.153  0.1253E+01  0.2013E+01
 -16.143  0.1067E+01  0.2025E+01
 -16.133  0.9444E+00  0.2035E+01
 -16.123  0.8799E+00  0.2044E+01
 -16.113  0.8542E+00  0.2052E+01
 -16.103  0.8407E+00  0.2061E+01
 -16.093  0.8390E+00  0.2069E+01
 -16.083  0.8505E+00  0.2078E+01
 -16.073  0.8688E+00  0.2086E+01
 -16.063  0.9010E+00  0.2095E+01
 -16.053  0.9570E+00  0.2104E+01
 -16.043  0.1013E+01  0.2114E+01
 -16.033  0.1064E+01  0.2125E+01
 -16.023  0.1115E+01  0.2136E+01
 -16.013  0.1169E+01  0.2147E+01
 -16.003  0.1227E+01  0.2159E+01
 -15.993  0.1293E+01  0.2172E+01
 -15.983  0.1374E+01  0.2185E+01
 -15.973  0.1463E+01  0.2199E+01
 -15.963  0.1561E+01  0.2214E+01
 -15.953  0.1673E+01  0.2230E+01
 -15.943  0.1799E+01  0.2248E+01
 -15.933  0.1938E+01  0.2266E+01
 -15.923  0.2082E+01  0.2286E+01
 -15.913  0.2233E+01  0.2308E+01
 -15.903  0.2426E+01  0.2331E+01
 -15.893  0.2819E+01  0.2357E+01
 -15.883  0.3099E+01  0.2387E+01
 -15.873  0.3364E+01  0.2419E+01
 -15.863  0.3615E+01  0.2454E+01
 -15.853  0.3933E+01  0.2492E+01
 -15.843  0.4353E+01  0.2533E+01
 -15.833  0.4953E+01  0.2579E+01
 -15.823  0.5752E+01  0.2633E+01
 -15.813  0.6772E+01  0.2695E+01
 -15.803  0.8337E+01  0.2770E+01
 -15.793  0.1403E+02  0.2880E+01
 -15.783  0.1485E+02  0.3030E+01
 -15.773  0.1166E+02  0.3171E+01
 -15.763  0.7139E+01  0.3259E+01
 -15.753  0.6006E+01  0.3324E+01
 -15.743  0.5181E+01  0.3380E+01
 -15.733  0.4528E+01  0.3428E+01
 -15.723  0.4029E+01  0.3471E+01
 -15.713  0.3668E+01  0.3509E+01
 -15.703  0.3363E+01  0.3544E+01
 -15.693  0.3108E+01  0.3577E+01
 -15.683  0.2835E+01  0.3606E+01
 -15.673  0.2561E+01  0.3633E+01
 -15.663  0.2340E+01  0.3658E+01
 -15.653  0.2129E+01  0.3680E+01
 -15.643  0.1980E+01  0.3701E+01
 -15.633  0.1883E+01  0.3720E+01
 -15.623  0.1784E+01  0.3738E+01
 -15.613  0.1681E+01  0.3756E+01
 -15.603  0.1579E+01  0.3772E+01
 -15.593  0.1483E+01  0.3787E+01
 -15.583  0.1397E+01  0.3802E+01
 -15.573  0.1318E+01  0.3815E+01
 -15.563  0.1245E+01  0.3828E+01
 -15.553  0.1183E+01  0.3840E+01
 -15.543  0.1139E+01  0.3852E+01
 -15.533  0.1098E+01  0.3863E+01
 -15.523  0.1058E+01  0.3874E+01
 -15.513  0.1012E+01  0.3884E+01
 -15.503  0.9608E+00  0.3894E+01
 -15.493  0.9117E+00  0.3903E+01
 -15.483  0.8741E+00  0.3912E+01
 -15.473  0.8578E+00  0.3921E+01
 -15.463  0.8485E+00  0.3929E+01
 -15.453  0.8383E+00  0.3938E+01
 -15.443  0.8385E+00  0.3946E+01
 -15.433  0.8520E+00  0.3955E+01
 -15.423  0.8800E+00  0.3963E+01
 -15.413  0.9282E+00  0.3972E+01
 -15.403  0.1015E+01  0.3982E+01
 -15.393  0.1078E+01  0.3992E+01
 -15.383  0.1149E+01  0.4004E+01
 -15.373  0.1197E+01  0.4015E+01
 -15.363  0.1262E+01  0.4028E+01
 -15.353  0.1379E+01  0.4041E+01
 -15.343  0.1536E+01  0.4055E+01
 -15.333  0.1725E+01  0.4072E+01
 -15.323  0.1955E+01  0.4090E+01
 -15.313  0.2326E+01  0.4111E+01
 -15.303  0.3530E+01  0.4141E+01
 -15.293  0.3375E+01  0.4175E+01
 -15.283  0.3649E+01  0.4210E+01
 -15.273  0.3898E+01  0.4247E+01
 -15.263  0.4233E+01  0.4288E+01
 -15.253  0.4494E+01  0.4332E+01
 -15.243  0.5186E+01  0.4379E+01
 -15.233  0.6011E+01  0.4436E+01
 -15.223  0.7004E+01  0.4500E+01
 -15.213  0.1129E+02  0.4589E+01
 -15.203  0.1690E+02  0.4725E+01
 -15.193  0.1653E+02  0.4895E+01
 -15.183  0.1060E+02  0.5034E+01
 -15.173  0.6089E+01  0.5108E+01
 -15.163  0.4865E+01  0.5161E+01
 -15.153  0.4330E+01  0.5206E+01
 -15.143  0.3889E+01  0.5248E+01
 -15.133  0.3534E+01  0.5285E+01
 -15.123  0.3247E+01  0.5318E+01
 -15.113  0.3013E+01  0.5350E+01
 -15.103  0.2850E+01  0.5379E+01
 -15.093  0.2716E+01  0.5407E+01
 -15.083  0.2592E+01  0.5433E+01
 -15.073  0.2476E+01  0.5459E+01
 -15.063  0.2367E+01  0.5483E+01
 -15.053  0.2262E+01  0.5506E+01
 -15.043  0.2159E+01  0.5528E+01
 -15.033  0.2067E+01  0.5549E+01
 -15.023  0.1999E+01  0.5569E+01
 -15.013  0.1933E+01  0.5589E+01
 -15.003  0.1869E+01  0.5608E+01
 -14.993  0.1806E+01  0.5627E+01
 -14.983  0.1745E+01  0.5644E+01
 -14.973  0.1685E+01  0.5661E+01
 -14.963  0.1627E+01  0.5678E+01
 -14.953  0.1571E+01  0.5694E+01
 -14.943  0.1518E+01  0.5709E+01
 -14.933  0.1474E+01  0.5724E+01
 -14.923  0.1432E+01  0.5739E+01
 -14.913  0.1390E+01  0.5753E+01
 -14.903  0.1345E+01  0.5767E+01
 -14.893  0.1300E+01  0.5780E+01
 -14.883  0.1256E+01  0.5793E+01
 -14.873  0.1212E+01  0.5805E+01
 -14.863  0.1168E+01  0.5817E+01
 -14.853  0.1129E+01  0.5828E+01
 -14.843  0.1095E+01  0.5840E+01
 -14.833  0.1062E+01  0.5850E+01
 -14.823  0.1030E+01  0.5861E+01
 -14.813  0.9993E+00  0.5871E+01
 -14.803  0.9626E+00  0.5881E+01
 -14.793  0.9253E+00  0.5890E+01
 -14.783  0.8864E+00  0.5899E+01
 -14.773  0.8452E+00  0.5908E+01
 -14.763  0.8069E+00  0.5916E+01
 -14.753  0.7723E+00  0.5924E+01
 -14.743  0.7378E+00  0.5932E+01
 -14.733  0.7033E+00  0.5939E+01
 -14.723  0.6715E+00  0.5946E+01
 -14.713  0.6448E+00  0.5952E+01
 -14.703  0.6145E+00  0.5959E+01
 -14.693  0.5923E+00  0.5965E+01
 -14.683  0.5534E+00  0.5970E+01
 -14.673  0.7244E+01  0.5984E+01
 -14.663  0.1987E+02  0.6155E+01
 -14.653  0.2200E+02  0.6364E+01
 -14.643  0.1137E+03  0.6812E+01
 -14.633  0.2917E+02  0.7309E+01
 -14.623  0.3180E+02  0.7606E+01
 -14.613  0.5466E+02  0.7994E+01
 -14.603  0.6292E+02  0.8620E+01
 -14.593  0.5381E+02  0.9161E+01
 -14.583  0.4394E+02  0.9619E+01
 -14.573  0.9454E+02  0.1034E+02
 -14.563  0.5016E+02  0.1115E+02
 -14.553  0.2934E+02  0.1154E+02
 -14.543  0.1901E+02  0.1178E+02
 -14.533  0.1007E+02  0.1192E+02
 -14.523  0.4311E+01  0.1199E+02
 -14.513  0.0000E+00  0.1200E+02
 -14.503  0.0000E+00  0.1200E+02
 -14.493  0.0000E+00  0.1200E+02
 -14.483  0.0000E+00  0.1200E+02
 -14.473  0.0000E+00  0.1200E+02
 -14.463  0.0000E+00  0.1200E+02
 -14.453  0.0000E+00  0.1200E+02
 -14.443  0.0000E+00  0.1200E+02
 -14.433  0.0000E+00  0.1200E+02
 -14.423  0.0000E+00  0.1200E+02
 -14.413  0.0000E+00  0.1200E+02
 -14.403  0.0000E+00  0.1200E+02
 -14.393  0.0000E+00  0.1200E+02
 -14.383  0.0000E+00  0.1200E+02
 -14.373  0.0000E+00  0.1200E+02
 -14.363  0.0000E+00  0.1200E+02
 -14.353  0.0000E+00  0.1200E+02
 -14.343  0.0000E+00  0.1200E+02
 -14.333  0.0000E+00  0.1200E+02
 -14.323  0.0000E+00  0.1200E+02
 -14.313  0.0000E+00  0.1200E+02
 -14.303  0.0000E+00  0.1200E+02
 -14.293  0.0000E+00  0.1200E+02
 -14.283  0.0000E+00  0.1200E+02
 -14.273  0.0000E+00  0.1200E+02
 -14.263  0.0000E+00  0.1200E+02
 -14.253  0.0000E+00  0.1200E+02
 -14.243  0.0000E+00  0.1200E+02
 -14.233  0.0000E+00  0.1200E+02
 -14.223  0.0000E+00  0.1200E+02
 -14.213  0.0000E+00  0.1200E+02
 -14.203  0.0000E+00  0.1200E+02
 -14.193  0.0000E+00  0.1200E+02
 -14.183  0.0000E+00  0.1200E+02
 -14.173  0.0000E+00  0.1200E+02
 -14.163  0.0000E+00  0.1200E+02
 -14.153  0.0000E+00  0.1200E+02
 -14.143  0.0000E+00  0.1200E+02
 -14.133  0.0000E+00  0.1200E+02
 -14.123  0.0000E+00  0.1200E+02
 -14.113  0.0000E+00  0.1200E+02
 -14.103  0.0000E+00  0.1200E+02
 -14.093  0.0000E+00  0.1200E+02
 -14.083  0.0000E+00  0.1200E+02
 -14.073  0.0000E+00  0.1200E+02
 -14.063  0.0000E+00  0.1200E+02
 -14.053  0.0000E+00  0.1200E+02
 -14.043  0.0000E+00  0.1200E+02
 -14.033  0.0000E+00  0.1200E+02
 -14.023  0.0000E+00  0.1200E+02
 -14.013  0.0000E+00  0.1200E+02
 -14.003  0.0000E+00  0.1200E+02
 -13.993  0.0000E+00  0.1200E+02
 -13.983  0.0000E+00  0.1200E+02
 -13.973  0.0000E+00  0.1200E+02
 -13.963  0.0000E+00  0.1200E+02
 -13.953  0.0000E+00  0.1200E+02
 -13.943  0.0000E+00  0.1200E+02
 -13.933  0.0000E+00  0.1200E+02
 -13.923  0.0000E+00  0.1200E+02
 -13.913  0.0000E+00  0.1200E+02
 -13.903  0.0000E+00  0.1200E+02
 -13.893  0.0000E+00  0.1200E+02
 -13.883  0.0000E+00  0.1200E+02
 -13.873  0.0000E+00  0.1200E+02
 -13.863  0.0000E+00  0.1200E+02
 -13.853  0.0000E+00  0.1200E+02
 -13.843  0.0000E+00  0.1200E+02
 -13.833  0.0000E+00  0.1200E+02
 -13.823  0.0000E+00  0.1200E+02
 -13.813  0.0000E+00  0.1200E+02
 -13.803  0.0000E+00  0.1200E+02
 -13.793  0.0000E+00  0.1200E+02
 -13.783  0.0000E+00  0.1200E+02
 -13.773  0.0000E+00  0.1200E+02
 -13.763  0.0000E+00  0.1200E+02
 -13.753  0.0000E+00  0.1200E+02
 -13.743  0.0000E+00  0.1200E+02
 -13.733  0.0000E+00  0.1200E+02
 -13.723  0.0000E+00  0.1200E+02
 -13.713  0.0000E+00  0.1200E+02
 -13.703  0.0000E+00  0.1200E+02
 -13.693  0.0000E+00  0.1200E+02
 -13.683  0.0000E+00  0.1200E+02
 -13.673  0.0000E+00  0.1200E+02
 -13.663  0.0000E+00  0.1200E+02
 -13.653  0.0000E+00  0.1200E+02
 -13.643  0.0000E+00  0.1200E+02
 -13.633  0.0000E+00  0.1200E+02
 -13.623  0.0000E+00  0.1200E+02
 -13.613  0.0000E+00  0.1200E+02
 -13.603  0.0000E+00  0.1200E+02
 -13.593  0.0000E+00  0.1200E+02
 -13.583  0.0000E+00  0.1200E+02
 -13.573  0.0000E+00  0.1200E+02
 -13.563  0.0000E+00  0.1200E+02
 -13.553  0.0000E+00  0.1200E+02
 -13.543  0.0000E+00  0.1200E+02
 -13.533  0.0000E+00  0.1200E+02
 -13.523  0.0000E+00  0.1200E+02
 -13.513  0.0000E+00  0.1200E+02
 -13.503  0.0000E+00  0.1200E+02
 -13.493  0.0000E+00  0.1200E+02
 -13.483  0.0000E+00  0.1200E+02
 -13.473  0.0000E+00  0.1200E+02
 -13.463  0.0000E+00  0.1200E+02
 -13.453  0.0000E+00  0.1200E+02
 -13.443  0.0000E+00  0.1200E+02
 -13.433  0.0000E+00  0.1200E+02
 -13.423  0.0000E+00  0.1200E+02
 -13.413  0.0000E+00  0.1200E+02
 -13.403  0.0000E+00  0.1200E+02
 -13.393  0.0000E+00  0.1200E+02
 -13.383  0.0000E+00  0.1200E+02
 -13.373  0.0000E+00  0.1200E+02
 -13.363  0.0000E+00  0.1200E+02
 -13.353  0.0000E+00  0.1200E+02
 -13.343  0.0000E+00  0.1200E+02
 -13.333  0.0000E+00  0.1200E+02
 -13.323  0.0000E+00  0.1200E+02
 -13.313  0.0000E+00  0.1200E+02
 -13.303  0.0000E+00  0.1200E+02
 -13.293  0.0000E+00  0.1200E+02
 -13.283  0.0000E+00  0.1200E+02
 -13.273  0.0000E+00  0.1200E+02
 -13.263  0.0000E+00  0.1200E+02
 -13.253  0.0000E+00  0.1200E+02
 -13.243  0.0000E+00  0.1200E+02
 -13.233  0.0000E+00  0.1200E+02
 -13.223  0.0000E+00  0.1200E+02
 -13.213  0.0000E+00  0.1200E+02
 -13.203  0.0000E+00  0.1200E+02
 -13.193  0.0000E+00  0.1200E+02
 -13.183  0.0000E+00  0.1200E+02
 -13.173  0.0000E+00  0.1200E+02
 -13.163  0.0000E+00  0.1200E+02
 -13.153  0.0000E+00  0.1200E+02
 -13.143  0.0000E+00  0.1200E+02
 -13.133  0.0000E+00  0.1200E+02
 -13.123  0.0000E+00  0.1200E+02
 -13.113  0.0000E+00  0.1200E+02
 -13.103  0.0000E+00  0.1200E+02
 -13.093  0.0000E+00  0.1200E+02
 -13.083  0.0000E+00  0.1200E+02
 -13.073  0.0000E+00  0.1200E+02
 -13.063  0.0000E+00  0.1200E+02
 -13.053  0.0000E+00  0.1200E+02
 -13.043  0.0000E+00  0.1200E+02
 -13.033  0.0000E+00  0.1200E+02
 -13.023  0.0000E+00  0.1200E+02
 -13.013  0.0000E+00  0.1200E+02
 -13.003  0.0000E+00  0.1200E+02
 -12.993  0.0000E+00  0.1200E+02
 -12.983  0.0000E+00  0.1200E+02
 -12.973  0.0000E+00  0.1200E+02
 -12.963  0.0000E+00  0.1200E+02
 -12.953  0.0000E+00  0.1200E+02
 -12.943  0.0000E+00  0.1200E+02
 -12.933  0.0000E+00  0.1200E+02
 -12.923  0.0000E+00  0.1200E+02
 -12.913  0.0000E+00  0.1200E+02
 -12.903  0.0000E+00  0.1200E+02
 -12.893  0.0000E+00  0.1200E+02
 -12.883  0.0000E+00  0.1200E+02
 -12.873  0.0000E+00  0.1200E+02
 -12.863  0.0000E+00  0.1200E+02
 -12.853  0.0000E+00  0.1200E+02
 -12.843  0.0000E+00  0.1200E+02
 -12.833  0.0000E+00  0.1200E+02
 -12.823  0.0000E+00  0.1200E+02
 -12.813  0.0000E+00  0.1200E+02
 -12.803  0.0000E+00  0.1200E+02
 -12.793  0.0000E+00  0.1200E+02
 -12.783  0.0000E+00  0.1200E+02
 -12.773  0.0000E+00  0.1200E+02
 -12.763  0.0000E+00  0.1200E+02
 -12.753  0.0000E+00  0.1200E+02
 -12.743  0.0000E+00  0.1200E+02
 -12.733  0.0000E+00  0.1200E+02
 -12.723  0.0000E+00  0.1200E+02
 -12.713  0.0000E+00  0.1200E+02
 -12.703  0.0000E+00  0.1200E+02
 -12.693  0.0000E+00  0.1200E+02
 -12.683  0.0000E+00  0.1200E+02
 -12.673  0.0000E+00  0.1200E+02
 -12.663  0.0000E+00  0.1200E+02
 -12.653  0.0000E+00  0.1200E+02
 -12.643  0.0000E+00  0.1200E+02
 -12.633  0.0000E+00  0.1200E+02
 -12.623  0.0000E+00  0.1200E+02
 -12.613  0.0000E+00  0.1200E+02
 -12.603  0.0000E+00  0.1200E+02
 -12.593  0.0000E+00  0.1200E+02
 -12.583  0.0000E+00  0.1200E+02
 -12.573  0.0000E+00  0.1200E+02
 -12.563  0.0000E+00  0.1200E+02
 -12.553  0.0000E+00  0.1200E+02
 -12.543  0.0000E+00  0.1200E+02
 -12.533  0.0000E+00  0.1200E+02
 -12.523  0.0000E+00  0.1200E+02
 -12.513  0.0000E+00  0.1200E+02
 -12.503  0.0000E+00  0.1200E+02
 -12.493  0.0000E+00  0.1200E+02
 -12.483  0.0000E+00  0.1200E+02
 -12.473  0.0000E+00  0.1200E+02
 -12.463  0.0000E+00  0.1200E+02
 -12.453  0.0000E+00  0.1200E+02
 -12.443  0.0000E+00  0.1200E+02
 -12.433  0.0000E+00  0.1200E+02
 -12.423  0.0000E+00  0.1200E+02
 -12.413  0.0000E+00  0.1200E+02
 -12.403  0.0000E+00  0.1200E+02
 -12.393  0.0000E+00  0.1200E+02
 -12.383  0.0000E+00  0.1200E+02
 -12.373  0.0000E+00  0.1200E+02
 -12.363  0.0000E+00  0.1200E+02
 -12.353  0.0000E+00  0.1200E+02
 -12.343  0.0000E+00  0.1200E+02
 -12.333  0.0000E+00  0.1200E+02
 -12.323  0.0000E+00  0.1200E+02
 -12.313  0.0000E+00  0.1200E+02
 -12.303  0.0000E+00  0.1200E+02
 -12.293  0.0000E+00  0.1200E+02
 -12.283  0.0000E+00  0.1200E+02
 -12.273  0.0000E+00  0.1200E+02
 -12.263  0.0000E+00  0.1200E+02
 -12.253  0.0000E+00  0.1200E+02
 -12.243  0.0000E+00  0.1200E+02
 -12.233  0.0000E+00  0.1200E+02
 -12.223  0.0000E+00  0.1200E+02
 -12.213  0.0000E+00  0.1200E+02
 -12.203  0.0000E+00  0.1200E+02
 -12.193  0.0000E+00  0.1200E+02
 -12.183  0.0000E+00  0.1200E+02
 -12.173  0.0000E+00  0.1200E+02
 -12.163  0.0000E+00  0.1200E+02
 -12.153  0.0000E+00  0.1200E+02
 -12.143  0.0000E+00  0.1200E+02
 -12.133  0.0000E+00  0.1200E+02
 -12.123  0.0000E+00  0.1200E+02
 -12.113  0.0000E+00  0.1200E+02
 -12.103  0.0000E+00  0.1200E+02
 -12.093  0.0000E+00  0.1200E+02
 -12.083  0.0000E+00  0.1200E+02
 -12.073  0.0000E+00  0.1200E+02
 -12.063  0.0000E+00  0.1200E+02
 -12.053  0.0000E+00  0.1200E+02
 -12.043  0.0000E+00  0.1200E+02
 -12.033  0.0000E+00  0.1200E+02
 -12.023  0.0000E+00  0.1200E+02
 -12.013  0.0000E+00  0.1200E+02
 -12.003  0.0000E+00  0.1200E+02
 -11.993  0.0000E+00  0.1200E+02
 -11.983  0.0000E+00  0.1200E+02
 -11.973  0.0000E+00  0.1200E+02
 -11.963  0.0000E+00  0.1200E+02
 -11.953  0.0000E+00  0.1200E+02
 -11.943  0.0000E+00  0.1200E+02
 -11.933  0.0000E+00  0.1200E+02
 -11.923  0.0000E+00  0.1200E+02
 -11.913  0.0000E+00  0.1200E+02
 -11.903  0.0000E+00  0.1200E+02
 -11.893  0.0000E+00  0.1200E+02
 -11.883  0.0000E+00  0.1200E+02
 -11.873  0.0000E+00  0.1200E+02
 -11.863  0.0000E+00  0.1200E+02
 -11.853  0.0000E+00  0.1200E+02
 -11.843  0.0000E+00  0.1200E+02
 -11.833  0.0000E+00  0.1200E+02
 -11.823  0.0000E+00  0.1200E+02
 -11.813  0.0000E+00  0.1200E+02
 -11.803  0.0000E+00  0.1200E+02
 -11.793  0.0000E+00  0.1200E+02
 -11.783  0.0000E+00  0.1200E+02
 -11.773  0.0000E+00  0.1200E+02
 -11.763  0.0000E+00  0.1200E+02
 -11.753  0.0000E+00  0.1200E+02
 -11.743  0.0000E+00  0.1200E+02
 -11.733  0.0000E+00  0.1200E+02
 -11.723  0.0000E+00  0.1200E+02
 -11.713  0.0000E+00  0.1200E+02
 -11.703  0.0000E+00  0.1200E+02
 -11.693  0.0000E+00  0.1200E+02
 -11.683  0.0000E+00  0.1200E+02
 -11.673  0.0000E+00  0.1200E+02
 -11.663  0.0000E+00  0.1200E+02
 -11.653  0.0000E+00  0.1200E+02
 -11.643  0.0000E+00  0.1200E+02
 -11.633  0.0000E+00  0.1200E+02
 -11.623  0.0000E+00  0.1200E+02
 -11.613  0.0000E+00  0.1200E+02
 -11.603  0.0000E+00  0.1200E+02
 -11.593  0.0000E+00  0.1200E+02
 -11.583  0.0000E+00  0.1200E+02
 -11.573  0.0000E+00  0.1200E+02
 -11.563  0.0000E+00  0.1200E+02
 -11.553  0.0000E+00  0.1200E+02
 -11.543  0.0000E+00  0.1200E+02
 -11.533  0.0000E+00  0.1200E+02
 -11.523  0.0000E+00  0.1200E+02
 -11.513  0.0000E+00  0.1200E+02
 -11.503  0.0000E+00  0.1200E+02
 -11.493  0.0000E+00  0.1200E+02
 -11.483  0.0000E+00  0.1200E+02
 -11.473  0.0000E+00  0.1200E+02
 -11.463  0.0000E+00  0.1200E+02
 -11.453  0.0000E+00  0.1200E+02
 -11.443  0.0000E+00  0.1200E+02
 -11.433  0.0000E+00  0.1200E+02
 -11.423  0.0000E+00  0.1200E+02
 -11.413  0.0000E+00  0.1200E+02
 -11.403  0.0000E+00  0.1200E+02
 -11.393  0.0000E+00  0.1200E+02
 -11.383  0.0000E+00  0.1200E+02
 -11.373  0.0000E+00  0.1200E+02
 -11.363  0.0000E+00  0.1200E+02
 -11.353  0.0000E+00  0.1200E+02
 -11.343  0.0000E+00  0.1200E+02
 -11.333  0.0000E+00  0.1200E+02
 -11.323  0.0000E+00  0.1200E+02
 -11.313  0.0000E+00  0.1200E+02
 -11.303  0.0000E+00  0.1200E+02
 -11.293  0.0000E+00  0.1200E+02
 -11.283  0.0000E+00  0.1200E+02
 -11.273  0.0000E+00  0.1200E+02
 -11.263  0.0000E+00  0.1200E+02
 -11.253  0.0000E+00  0.1200E+02
 -11.243  0.0000E+00  0.1200E+02
 -11.233  0.0000E+00  0.1200E+02
 -11.223  0.0000E+00  0.1200E+02
 -11.213  0.0000E+00  0.1200E+02
 -11.203  0.0000E+00  0.1200E+02
 -11.193  0.0000E+00  0.1200E+02
 -11.183  0.0000E+00  0.1200E+02
 -11.173  0.0000E+00  0.1200E+02
 -11.163  0.0000E+00  0.1200E+02
 -11.153  0.0000E+00  0.1200E+02
 -11.143  0.0000E+00  0.1200E+02
 -11.133  0.0000E+00  0.1200E+02
 -11.123  0.0000E+00  0.1200E+02
 -11.113  0.0000E+00  0.1200E+02
 -11.103  0.0000E+00  0.1200E+02
 -11.093  0.0000E+00  0.1200E+02
 -11.083  0.0000E+00  0.1200E+02
 -11.073  0.0000E+00  0.1200E+02
 -11.063  0.0000E+00  0.1200E+02
 -11.053  0.0000E+00  0.1200E+02
 -11.043  0.0000E+00  0.1200E+02
 -11.033  0.0000E+00  0.1200E+02
 -11.023  0.0000E+00  0.1200E+02
 -11.013  0.0000E+00  0.1200E+02
 -11.003  0.0000E+00  0.1200E+02
 -10.993  0.0000E+00  0.1200E+02
 -10.983  0.0000E+00  0.1200E+02
 -10.973  0.0000E+00  0.1200E+02
 -10.963  0.0000E+00  0.1200E+02
 -10.953  0.0000E+00  0.1200E+02
 -10.943  0.0000E+00  0.1200E+02
 -10.933  0.0000E+00  0.1200E+02
 -10.923  0.0000E+00  0.1200E+02
 -10.913  0.0000E+00  0.1200E+02
 -10.903  0.0000E+00  0.1200E+02
 -10.893  0.0000E+00  0.1200E+02
 -10.883  0.0000E+00  0.1200E+02
 -10.873  0.0000E+00  0.1200E+02
 -10.863  0.0000E+00  0.1200E+02
 -10.853  0.0000E+00  0.1200E+02
 -10.843  0.0000E+00  0.1200E+02
 -10.833  0.0000E+00  0.1200E+02
 -10.823  0.0000E+00  0.1200E+02
 -10.813  0.0000E+00  0.1200E+02
 -10.803  0.0000E+00  0.1200E+02
 -10.793  0.0000E+00  0.1200E+02
 -10.783  0.0000E+00  0.1200E+02
 -10.773  0.0000E+00  0.1200E+02
 -10.763  0.0000E+00  0.1200E+02
 -10.753  0.0000E+00  0.1200E+02
 -10.743  0.0000E+00  0.1200E+02
