#  E (eV)   dos(E)     Int dos(E) EFermi =    2.581 eV
 -16.773  0.0000E+00  0.0000E+00
 -16.763  0.2265E+00  0.7611E-03
 -16.753  0.4289E+00  0.4509E-02
 -16.743  0.5368E+00  0.9186E-02
 -16.733  0.6864E+00  0.1532E-01
 -16.723  0.7593E+00  0.2261E-01
 -16.713  0.8229E+00  0.3050E-01
 -16.703  0.9090E+00  0.3916E-01
 -16.693  0.9974E+00  0.4868E-01
 -16.683  0.1081E+01  0.5909E-01
 -16.673  0.1135E+01  0.7019E-01
 -16.663  0.1196E+01  0.8185E-01
 -16.653  0.1253E+01  0.9409E-01
 -16.643  0.1323E+01  0.1070E+00
 -16.633  0.1398E+01  0.1206E+00
 -16.623  0.1465E+01  0.1349E+00
 -16.613  0.1527E+01  0.1499E+00
 -16.603  0.1577E+01  0.1654E+00
 -16.593  0.1635E+01  0.1814E+00
 -16.583  0.1697E+01  0.1981E+00
 -16.573  0.1761E+01  0.2154E+00
 -16.563  0.1827E+01  0.2333E+00
 -16.553  0.1892E+01  0.2519E+00
 -16.543  0.1960E+01  0.2712E+00
 -16.533  0.2028E+01  0.2911E+00
 -16.523  0.2089E+01  0.3117E+00
 -16.513  0.2151E+01  0.3329E+00
 -16.503  0.2216E+01  0.3547E+00
 -16.493  0.2285E+01  0.3772E+00
 -16.483  0.2364E+01  0.4005E+00
 -16.473  0.2445E+01  0.4245E+00
 -16.463  0.2528E+01  0.4494E+00
 -16.453  0.2609E+01  0.4751E+00
 -16.443  0.2693E+01  0.5016E+00
 -16.433  0.2773E+01  0.5289E+00
 -16.423  0.2870E+01  0.5571E+00
 -16.413  0.2974E+01  0.5863E+00
 -16.403  0.3085E+01  0.6166E+00
 -16.393  0.3205E+01  0.6480E+00
 -16.383  0.3332E+01  0.6807E+00
 -16.373  0.3467E+01  0.7147E+00
 -16.363  0.3623E+01  0.7501E+00
 -16.353  0.4138E+01  0.7887E+00
 -16.343  0.4186E+01  0.8297E+00
 -16.333  0.4385E+01  0.8725E+00
 -16.323  0.4598E+01  0.9174E+00
 -16.313  0.4865E+01  0.9647E+00
 -16.303  0.5296E+01  0.1015E+01
 -16.293  0.5917E+01  0.1071E+01
 -16.283  0.6631E+01  0.1135E+01
 -16.273  0.6827E+01  0.1202E+01
 -16.263  0.7031E+01  0.1271E+01
 -16.253  0.7681E+01  0.1344E+01
 -16.243  0.7938E+01  0.1422E+01
 -16.233  0.8631E+01  0.1505E+01
 -16.223  0.9784E+01  0.1597E+01
 -16.213  0.1191E+02  0.1701E+01
 -16.203  0.8087E+01  0.1795E+01
 -16.193  0.6785E+01  0.1871E+01
 -16.183  0.5507E+01  0.1935E+01
 -16.173  0.2702E+01  0.1971E+01
 -16.163  0.1964E+01  0.1993E+01
 -16.153  0.1551E+01  0.2011E+01
 -16.143  0.1249E+01  0.2025E+01
 -16.133  0.1042E+01  0.2036E+01
 -16.123  0.9447E+00  0.2046E+01
 -16.113  0.8740E+00  0.2055E+01
 -16.103  0.8530E+00  0.2063E+01
 -16.093  0.8501E+00  0.2072E+01
 -16.083  0.8610E+00  0.2081E+01
 -16.073  0.8865E+00  0.2089E+01
 -16.063  0.9201E+00  0.2098E+01
 -16.053  0.9572E+00  0.2108E+01
 -16.043  0.9943E+00  0.2117E+01
 -16.033  0.1048E+01  0.2128E+01
 -16.023  0.1108E+01  0.2138E+01
 -16.013  0.1170E+01  0.2150E+01
 -16.003  0.1235E+01  0.2162E+01
 -15.993  0.1303E+01  0.2175E+01
 -15.983  0.1376E+01  0.2188E+01
 -15.973  0.1464E+01  0.2202E+01
 -15.963  0.1572E+01  0.2217E+01
 -15.953  0.1694E+01  0.2234E+01
 -15.943  0.1820E+01  0.2251E+01
 -15.933  0.1956E+01  0.2270E+01
 -15.923  0.2173E+01  0.2291E+01
 -15.913  0.2359E+01  0.2313E+01
 -15.903  0.2540E+01  0.2338E+01
 -15.893  0.2730E+01  0.2364E+01
 -15.883  0.2968E+01  0.2393E+01
 -15.873  0.3243E+01  0.2424E+01
 -15.863  0.3553E+01  0.2458E+01
 -15.853  0.3909E+01  0.2495E+01
 -15.843  0.4412E+01  0.2536E+01
 -15.833  0.5030E+01  0.2583E+01
 -15.823  0.5742E+01  0.2637E+01
 -15.813  0.6937E+01  0.2701E+01
 -15.803  0.8627E+01  0.2777E+01
 -15.793  0.1275E+02  0.2882E+01
 -15.783  0.1455E+02  0.3028E+01
 -15.773  0.1072E+02  0.3162E+01
 -15.763  0.7594E+01  0.3250E+01
 -15.753  0.6334E+01  0.3320E+01
 -15.743  0.5179E+01  0.3376E+01
 -15.733  0.4546E+01  0.3425E+01
 -15.723  0.4017E+01  0.3467E+01
 -15.713  0.3628E+01  0.3505E+01
 -15.703  0.3322E+01  0.3540E+01
 -15.693  0.3052E+01  0.3572E+01
 -15.683  0.2831E+01  0.3601E+01
 -15.673  0.2612E+01  0.3629E+01
 -15.663  0.2406E+01  0.3654E+01
 -15.653  0.2179E+01  0.3677E+01
 -15.643  0.2040E+01  0.3698E+01
 -15.633  0.1908E+01  0.3717E+01
 -15.623  0.1780E+01  0.3736E+01
 -15.613  0.1657E+01  0.3753E+01
 -15.603  0.1553E+01  0.3769E+01
 -15.593  0.1470E+01  0.3784E+01
 -15.583  0.1397E+01  0.3798E+01
 -15.573  0.1335E+01  0.3812E+01
 -15.563  0.1267E+01  0.3825E+01
 -15.553  0.1201E+01  0.3837E+01
 -15.543  0.1140E+01  0.3849E+01
 -15.533  0.1088E+01  0.3860E+01
 -15.523  0.1039E+01  0.3871E+01
 -15.513  0.9890E+00  0.3881E+01
 -15.503  0.9468E+00  0.3891E+01
 -15.493  0.9108E+00  0.3900E+01
 -15.483  0.8839E+00  0.3909E+01
 -15.473  0.8663E+00  0.3918E+01
 -15.463  0.8604E+00  0.3926E+01
 -15.453  0.8650E+00  0.3935E+01
 -15.443  0.8735E+00  0.3944E+01
 -15.433  0.9568E+00  0.3953E+01
 -15.423  0.9829E+00  0.3962E+01
 -15.413  0.9941E+00  0.3972E+01
 -15.403  0.1019E+01  0.3982E+01
 -15.393  0.1065E+01  0.3993E+01
 -15.383  0.1129E+01  0.4004E+01
 -15.373  0.1209E+01  0.4015E+01
 -15.363  0.1317E+01  0.4028E+01
 -15.353  0.1455E+01  0.4042E+01
 -15.343  0.1628E+01  0.4057E+01
 -15.333  0.2039E+01  0.4075E+01
 -15.323  0.2229E+01  0.4097E+01
 -15.313  0.2518E+01  0.4120E+01
 -15.303  0.3055E+01  0.4148E+01
 -15.293  0.3357E+01  0.4180E+01
 -15.283  0.3592E+01  0.4215E+01
 -15.273  0.3787E+01  0.4252E+01
 -15.263  0.4173E+01  0.4292E+01
 -15.253  0.4616E+01  0.4336E+01
 -15.243  0.5039E+01  0.4384E+01
 -15.233  0.5961E+01  0.4438E+01
 -15.223  0.7351E+01  0.4504E+01
 -15.213  0.1118E+02  0.4593E+01
 -15.203  0.1707E+02  0.4733E+01
 -15.193  0.1685E+02  0.4905E+01
 -15.183  0.1128E+02  0.5039E+01
 -15.173  0.5704E+01  0.5112E+01
 -15.163  0.4793E+01  0.5164E+01
 -15.153  0.4221E+01  0.5209E+01
 -15.143  0.3763E+01  0.5248E+01
 -15.133  0.3434E+01  0.5284E+01
 -15.123  0.3210E+01  0.5317E+01
 -15.113  0.3015E+01  0.5349E+01
 -15.103  0.2840E+01  0.5378E+01
 -15.093  0.2683E+01  0.5405E+01
 -15.083  0.2532E+01  0.5431E+01
 -15.073  0.2428E+01  0.5456E+01
 -15.063  0.2334E+01  0.5480E+01
 -15.053  0.2244E+01  0.5503E+01
 -15.043  0.2158E+01  0.5525E+01
 -15.033  0.2073E+01  0.5546E+01
 -15.023  0.1992E+01  0.5566E+01
 -15.013  0.1918E+01  0.5586E+01
 -15.003  0.1857E+01  0.5605E+01
 -14.993  0.1799E+01  0.5623E+01
 -14.983  0.1743E+01  0.5641E+01
 -14.973  0.1688E+01  0.5658E+01
 -14.963  0.1632E+01  0.5675E+01
 -14.953  0.1576E+01  0.5691E+01
 -14.943  0.1518E+01  0.5706E+01
 -14.933  0.1472E+01  0.5721E+01
 -14.923  0.1428E+01  0.5736E+01
 -14.913  0.1385E+01  0.5750E+01
 -14.903  0.1342E+01  0.5763E+01
 -14.893  0.1299E+01  0.5776E+01
 -14.883  0.1257E+01  0.5789E+01
 -14.873  0.1216E+01  0.5802E+01
 -14.863  0.1178E+01  0.5814E+01
 -14.853  0.1146E+01  0.5825E+01
 -14.843  0.1110E+01  0.5836E+01
 -14.833  0.1072E+01  0.5847E+01
 -14.823  0.1032E+01  0.5858E+01
 -14.813  0.9914E+00  0.5868E+01
 -14.803  0.9519E+00  0.5878E+01
 -14.793  0.9172E+00  0.5887E+01
 -14.783  0.8854E+00  0.5896E+01
 -14.773  0.8542E+00  0.5905E+01
 -14.763  0.8254E+00  0.5913E+01
 -14.753  0.7930E+00  0.5921E+01
 -14.743  0.7560E+00  0.5929E+01
 -14.733  0.7268E+00  0.5936E+01
 -14.723  0.6879E+00  0.5943E+01
 -14.713  0.6496E+00  0.5950E+01
 -14.703  0.6114E+00  0.5956E+01
 -14.693  0.5739E+00  0.5962E+01
 -14.683  0.5455E+00  0.5968E+01
 -14.673  0.6273E+01  0.5984E+01
 -14.663  0.2002E+02  0.6159E+01
 -14.653  0.2185E+02  0.6365E+01
 -14.643  0.1059E+03  0.6807E+01
 -14.633  0.3024E+02  0.7308E+01
 -14.623  0.3148E+02  0.7609E+01
 -14.613  0.5414E+02  0.8003E+01
 -14.603  0.6599E+02  0.8622E+01
 -14.593  0.5441E+02  0.9152E+01
 -14.583  0.4436E+02  0.9619E+01
 -14.573  0.9198E+02  0.1034E+02
 -14.563  0.5212E+02  0.1115E+02
 -14.553  0.2954E+02  0.1153E+02
 -14.543  0.1879E+02  0.1178E+02
 -14.533  0.1010E+02  0.1191E+02
 -14.523  0.4401E+01  0.1199E+02
 -14.513  0.0000E+00  0.1200E+02
 -14.503  0.0000E+00  0.1200E+02
 -14.493  0.0000E+00  0.1200E+02
 -14.483  0.0000E+00  0.1200E+02
 -14.473  0.0000E+00  0.1200E+02
 -14.463  0.0000E+00  0.1200E+02
 -14.453  0.0000E+00  0.1200E+02
 -14.443  0.0000E+00  0.1200E+02
 -14.433  0.0000E+00  0.1200E+02
 -14.423  0.0000E+00  0.1200E+02
 -14.413  0.0000E+00  0.1200E+02
 -14.403  0.0000E+00  0.1200E+02
 -14.393  0.0000E+00  0.1200E+02
 -14.383  0.0000E+00  0.1200E+02
 -14.373  0.0000E+00  0.1200E+02
 -14.363  0.0000E+00  0.1200E+02
 -14.353  0.0000E+00  0.1200E+02
 -14.343  0.0000E+00  0.1200E+02
 -14.333  0.0000E+00  0.1200E+02
 -14.323  0.0000E+00  0.1200E+02
 -14.313  0.0000E+00  0.1200E+02
 -14.303  0.0000E+00  0.1200E+02
 -14.293  0.0000E+00  0.1200E+02
 -14.283  0.0000E+00  0.1200E+02
 -14.273  0.0000E+00  0.1200E+02
 -14.263  0.0000E+00  0.1200E+02
 -14.253  0.0000E+00  0.1200E+02
 -14.243  0.0000E+00  0.1200E+02
 -14.233  0.0000E+00  0.1200E+02
 -14.223  0.0000E+00  0.1200E+02
 -14.213  0.0000E+00  0.1200E+02
 -14.203  0.0000E+00  0.1200E+02
 -14.193  0.0000E+00  0.1200E+02
 -14.183  0.0000E+00  0.1200E+02
 -14.173  0.0000E+00  0.1200E+02
 -14.163  0.0000E+00  0.1200E+02
 -14.153  0.0000E+00  0.1200E+02
 -14.143  0.0000E+00  0.1200E+02
 -14.133  0.0000E+00  0.1200E+02
 -14.123  0.0000E+00  0.1200E+02
 -14.113  0.0000E+00  0.1200E+02
 -14.103  0.0000E+00  0.1200E+02
 -14.093  0.0000E+00  0.1200E+02
 -14.083  0.0000E+00  0.1200E+02
 -14.073  0.0000E+00  0.1200E+02
 -14.063  0.0000E+00  0.1200E+02
 -14.053  0.0000E+00  0.1200E+02
 -14.043  0.0000E+00  0.1200E+02
 -14.033  0.0000E+00  0.1200E+02
 -14.023  0.0000E+00  0.1200E+02
 -14.013  0.0000E+00  0.1200E+02
 -14.003  0.0000E+00  0.1200E+02
 -13.993  0.0000E+00  0.1200E+02
 -13.983  0.0000E+00  0.1200E+02
 -13.973  0.0000E+00  0.1200E+02
 -13.963  0.0000E+00  0.1200E+02
 -13.953  0.0000E+00  0.1200E+02
 -13.943  0.0000E+00  0.1200E+02
 -13.933  0.0000E+00  0.1200E+02
 -13.923  0.0000E+00  0.1200E+02
 -13.913  0.0000E+00  0.1200E+02
 -13.903  0.0000E+00  0.1200E+02
 -13.893  0.0000E+00  0.1200E+02
 -13.883  0.0000E+00  0.1200E+02
 -13.873  0.0000E+00  0.1200E+02
 -13.863  0.0000E+00  0.1200E+02
 -13.853  0.0000E+00  0.1200E+02
 -13.843  0.0000E+00  0.1200E+02
 -13.833  0.0000E+00  0.1200E+02
 -13.823  0.0000E+00  0.1200E+02
 -13.813  0.0000E+00  0.1200E+02
 -13.803  0.0000E+00  0.1200E+02
 -13.793  0.0000E+00  0.1200E+02
 -13.783  0.0000E+00  0.1200E+02
 -13.773  0.0000E+00  0.1200E+02
 -13.763  0.0000E+00  0.1200E+02
 -13.753  0.0000E+00  0.1200E+02
 -13.743  0.0000E+00  0.1200E+02
 -13.733  0.0000E+00  0.1200E+02
 -13.723  0.0000E+00  0.1200E+02
 -13.713  0.0000E+00  0.1200E+02
 -13.703  0.0000E+00  0.1200E+02
 -13.693  0.0000E+00  0.1200E+02
 -13.683  0.0000E+00  0.1200E+02
 -13.673  0.0000E+00  0.1200E+02
 -13.663  0.0000E+00  0.1200E+02
 -13.653  0.0000E+00  0.1200E+02
 -13.643  0.0000E+00  0.1200E+02
 -13.633  0.0000E+00  0.1200E+02
 -13.623  0.0000E+00  0.1200E+02
 -13.613  0.0000E+00  0.1200E+02
 -13.603  0.0000E+00  0.1200E+02
 -13.593  0.0000E+00  0.1200E+02
 -13.583  0.0000E+00  0.1200E+02
 -13.573  0.0000E+00  0.1200E+02
 -13.563  0.0000E+00  0.1200E+02
 -13.553  0.0000E+00  0.1200E+02
 -13.543  0.0000E+00  0.1200E+02
 -13.533  0.0000E+00  0.1200E+02
 -13.523  0.0000E+00  0.1200E+02
 -13.513  0.0000E+00  0.1200E+02
 -13.503  0.0000E+00  0.1200E+02
 -13.493  0.0000E+00  0.1200E+02
 -13.483  0.0000E+00  0.1200E+02
 -13.473  0.0000E+00  0.1200E+02
 -13.463  0.0000E+00  0.1200E+02
 -13.453  0.0000E+00  0.1200E+02
 -13.443  0.0000E+00  0.1200E+02
 -13.433  0.0000E+00  0.1200E+02
 -13.423  0.0000E+00  0.1200E+02
 -13.413  0.0000E+00  0.1200E+02
 -13.403  0.0000E+00  0.1200E+02
 -13.393  0.0000E+00  0.1200E+02
 -13.383  0.0000E+00  0.1200E+02
 -13.373  0.0000E+00  0.1200E+02
 -13.363  0.0000E+00  0.1200E+02
 -13.353  0.0000E+00  0.1200E+02
 -13.343  0.0000E+00  0.1200E+02
 -13.333  0.0000E+00  0.1200E+02
 -13.323  0.0000E+00  0.1200E+02
 -13.313  0.0000E+00  0.1200E+02
 -13.303  0.0000E+00  0.1200E+02
 -13.293  0.0000E+00  0.1200E+02
 -13.283  0.0000E+00  0.1200E+02
 -13.273  0.0000E+00  0.1200E+02
 -13.263  0.0000E+00  0.1200E+02
 -13.253  0.0000E+00  0.1200E+02
 -13.243  0.0000E+00  0.1200E+02
 -13.233  0.0000E+00  0.1200E+02
 -13.223  0.0000E+00  0.1200E+02
 -13.213  0.0000E+00  0.1200E+02
 -13.203  0.0000E+00  0.1200E+02
 -13.193  0.0000E+00  0.1200E+02
 -13.183  0.0000E+00  0.1200E+02
 -13.173  0.0000E+00  0.1200E+02
 -13.163  0.0000E+00  0.1200E+02
 -13.153  0.0000E+00  0.1200E+02
 -13.143  0.0000E+00  0.1200E+02
 -13.133  0.0000E+00  0.1200E+02
 -13.123  0.0000E+00  0.1200E+02
 -13.113  0.0000E+00  0.1200E+02
 -13.103  0.0000E+00  0.1200E+02
 -13.093  0.0000E+00  0.1200E+02
 -13.083  0.0000E+00  0.1200E+02
 -13.073  0.0000E+00  0.1200E+02
 -13.063  0.0000E+00  0.1200E+02
 -13.053  0.0000E+00  0.1200E+02
 -13.043  0.0000E+00  0.1200E+02
 -13.033  0.0000E+00  0.1200E+02
 -13.023  0.0000E+00  0.1200E+02
 -13.013  0.0000E+00  0.1200E+02
 -13.003  0.0000E+00  0.1200E+02
 -12.993  0.0000E+00  0.1200E+02
 -12.983  0.0000E+00  0.1200E+02
 -12.973  0.0000E+00  0.1200E+02
 -12.963  0.0000E+00  0.1200E+02
 -12.953  0.0000E+00  0.1200E+02
 -12.943  0.0000E+00  0.1200E+02
 -12.933  0.0000E+00  0.1200E+02
 -12.923  0.0000E+00  0.1200E+02
 -12.913  0.0000E+00  0.1200E+02
 -12.903  0.0000E+00  0.1200E+02
 -12.893  0.0000E+00  0.1200E+02
 -12.883  0.0000E+00  0.1200E+02
 -12.873  0.0000E+00  0.1200E+02
 -12.863  0.0000E+00  0.1200E+02
 -12.853  0.0000E+00  0.1200E+02
 -12.843  0.0000E+00  0.1200E+02
 -12.833  0.0000E+00  0.1200E+02
 -12.823  0.0000E+00  0.1200E+02
 -12.813  0.0000E+00  0.1200E+02
 -12.803  0.0000E+00  0.1200E+02
 -12.793  0.0000E+00  0.1200E+02
 -12.783  0.0000E+00  0.1200E+02
 -12.773  0.0000E+00  0.1200E+02
 -12.763  0.0000E+00  0.1200E+02
 -12.753  0.0000E+00  0.1200E+02
 -12.743  0.0000E+00  0.1200E+02
 -12.733  0.0000E+00  0.1200E+02
 -12.723  0.0000E+00  0.1200E+02
 -12.713  0.0000E+00  0.1200E+02
 -12.703  0.0000E+00  0.1200E+02
 -12.693  0.0000E+00  0.1200E+02
 -12.683  0.0000E+00  0.1200E+02
 -12.673  0.0000E+00  0.1200E+02
 -12.663  0.0000E+00  0.1200E+02
 -12.653  0.0000E+00  0.1200E+02
 -12.643  0.0000E+00  0.1200E+02
 -12.633  0.0000E+00  0.1200E+02
 -12.623  0.0000E+00  0.1200E+02
 -12.613  0.0000E+00  0.1200E+02
 -12.603  0.0000E+00  0.1200E+02
 -12.593  0.0000E+00  0.1200E+02
 -12.583  0.0000E+00  0.1200E+02
 -12.573  0.0000E+00  0.1200E+02
 -12.563  0.0000E+00  0.1200E+02
 -12.553  0.0000E+00  0.1200E+02
 -12.543  0.0000E+00  0.1200E+02
 -12.533  0.0000E+00  0.1200E+02
 -12.523  0.0000E+00  0.1200E+02
 -12.513  0.0000E+00  0.1200E+02
 -12.503  0.0000E+00  0.1200E+02
 -12.493  0.0000E+00  0.1200E+02
 -12.483  0.0000E+00  0.1200E+02
 -12.473  0.0000E+00  0.1200E+02
 -12.463  0.0000E+00  0.1200E+02
 -12.453  0.0000E+00  0.1200E+02
 -12.443  0.0000E+00  0.1200E+02
 -12.433  0.0000E+00  0.1200E+02
 -12.423  0.0000E+00  0.1200E+02
 -12.413  0.0000E+00  0.1200E+02
 -12.403  0.0000E+00  0.1200E+02
 -12.393  0.0000E+00  0.1200E+02
 -12.383  0.0000E+00  0.1200E+02
 -12.373  0.0000E+00  0.1200E+02
 -12.363  0.0000E+00  0.1200E+02
 -12.353  0.0000E+00  0.1200E+02
 -12.343  0.0000E+00  0.1200E+02
 -12.333  0.0000E+00  0.1200E+02
 -12.323  0.0000E+00  0.1200E+02
 -12.313  0.0000E+00  0.1200E+02
 -12.303  0.0000E+00  0.1200E+02
 -12.293  0.0000E+00  0.1200E+02
 -12.283  0.0000E+00  0.1200E+02
 -12.273  0.0000E+00  0.1200E+02
 -12.263  0.0000E+00  0.1200E+02
 -12.253  0.0000E+00  0.1200E+02
 -12.243  0.0000E+00  0.1200E+02
 -12.233  0.0000E+00  0.1200E+02
 -12.223  0.0000E+00  0.1200E+02
 -12.213  0.0000E+00  0.1200E+02
 -12.203  0.0000E+00  0.1200E+02
 -12.193  0.0000E+00  0.1200E+02
 -12.183  0.0000E+00  0.1200E+02
 -12.173  0.0000E+00  0.1200E+02
 -12.163  0.0000E+00  0.1200E+02
 -12.153  0.0000E+00  0.1200E+02
 -12.143  0.0000E+00  0.1200E+02
 -12.133  0.0000E+00  0.1200E+02
 -12.123  0.0000E+00  0.1200E+02
 -12.113  0.0000E+00  0.1200E+02
 -12.103  0.0000E+00  0.1200E+02
 -12.093  0.0000E+00  0.1200E+02
 -12.083  0.0000E+00  0.1200E+02
 -12.073  0.0000E+00  0.1200E+02
 -12.063  0.0000E+00  0.1200E+02
 -12.053  0.0000E+00  0.1200E+02
 -12.043  0.0000E+00  0.1200E+02
 -12.033  0.0000E+00  0.1200E+02
 -12.023  0.0000E+00  0.1200E+02
 -12.013  0.0000E+00  0.1200E+02
 -12.003  0.0000E+00  0.1200E+02
 -11.993  0.0000E+00  0.1200E+02
 -11.983  0.0000E+00  0.1200E+02
 -11.973  0.0000E+00  0.1200E+02
 -11.963  0.0000E+00  0.1200E+02
 -11.953  0.0000E+00  0.1200E+02
 -11.943  0.0000E+00  0.1200E+02
 -11.933  0.0000E+00  0.1200E+02
 -11.923  0.0000E+00  0.1200E+02
 -11.913  0.0000E+00  0.1200E+02
 -11.903  0.0000E+00  0.1200E+02
 -11.893  0.0000E+00  0.1200E+02
 -11.883  0.0000E+00  0.1200E+02
 -11.873  0.0000E+00  0.1200E+02
 -11.863  0.0000E+00  0.1200E+02
 -11.853  0.0000E+00  0.1200E+02
 -11.843  0.0000E+00  0.1200E+02
 -11.833  0.0000E+00  0.1200E+02
 -11.823  0.0000E+00  0.1200E+02
 -11.813  0.0000E+00  0.1200E+02
 -11.803  0.0000E+00  0.1200E+02
 -11.793  0.0000E+00  0.1200E+02
 -11.783  0.0000E+00  0.1200E+02
 -11.773  0.0000E+00  0.1200E+02
 -11.763  0.0000E+00  0.1200E+02
 -11.753  0.0000E+00  0.1200E+02
 -11.743  0.0000E+00  0.1200E+02
 -11.733  0.0000E+00  0.1200E+02
 -11.723  0.0000E+00  0.1200E+02
 -11.713  0.0000E+00  0.1200E+02
 -11.703  0.0000E+00  0.1200E+02
 -11.693  0.0000E+00  0.1200E+02
 -11.683  0.0000E+00  0.1200E+02
 -11.673  0.0000E+00  0.1200E+02
 -11.663  0.0000E+00  0.1200E+02
 -11.653  0.0000E+00  0.1200E+02
 -11.643  0.0000E+00  0.1200E+02
 -11.633  0.0000E+00  0.1200E+02
 -11.623  0.0000E+00  0.1200E+02
 -11.613  0.0000E+00  0.1200E+02
 -11.603  0.0000E+00  0.1200E+02
 -11.593  0.0000E+00  0.1200E+02
 -11.583  0.0000E+00  0.1200E+02
 -11.573  0.0000E+00  0.1200E+02
 -11.563  0.0000E+00  0.1200E+02
 -11.553  0.0000E+00  0.1200E+02
 -11.543  0.0000E+00  0.1200E+02
 -11.533  0.0000E+00  0.1200E+02
 -11.523  0.0000E+00  0.1200E+02
 -11.513  0.0000E+00  0.1200E+02
 -11.503  0.0000E+00  0.1200E+02
 -11.493  0.0000E+00  0.1200E+02
 -11.483  0.0000E+00  0.1200E+02
 -11.473  0.0000E+00  0.1200E+02
 -11.463  0.0000E+00  0.1200E+02
 -11.453  0.0000E+00  0.1200E+02
 -11.443  0.0000E+00  0.1200E+02
 -11.433  0.0000E+00  0.1200E+02
 -11.423  0.0000E+00  0.1200E+02
 -11.413  0.0000E+00  0.1200E+02
 -11.403  0.0000E+00  0.1200E+02
 -11.393  0.0000E+00  0.1200E+02
 -11.383  0.0000E+00  0.1200E+02
 -11.373  0.0000E+00  0.1200E+02
 -11.363  0.0000E+00  0.1200E+02
 -11.353  0.0000E+00  0.1200E+02
 -11.343  0.0000E+00  0.1200E+02
 -11.333  0.0000E+00  0.1200E+02
 -11.323  0.0000E+00  0.1200E+02
 -11.313  0.0000E+00  0.1200E+02
 -11.303  0.0000E+00  0.1200E+02
 -11.293  0.0000E+00  0.1200E+02
 -11.283  0.0000E+00  0.1200E+02
 -11.273  0.0000E+00  0.1200E+02
 -11.263  0.0000E+00  0.1200E+02
 -11.253  0.0000E+00  0.1200E+02
 -11.243  0.0000E+00  0.1200E+02
 -11.233  0.0000E+00  0.1200E+02
 -11.223  0.0000E+00  0.1200E+02
 -11.213  0.0000E+00  0.1200E+02
 -11.203  0.0000E+00  0.1200E+02
 -11.193  0.0000E+00  0.1200E+02
 -11.183  0.0000E+00  0.1200E+02
 -11.173  0.0000E+00  0.1200E+02
 -11.163  0.0000E+00  0.1200E+02
 -11.153  0.0000E+00  0.1200E+02
 -11.143  0.0000E+00  0.1200E+02
 -11.133  0.0000E+00  0.1200E+02
 -11.123  0.0000E+00  0.1200E+02
 -11.113  0.0000E+00  0.1200E+02
 -11.103  0.0000E+00  0.1200E+02
 -11.093  0.0000E+00  0.1200E+02
 -11.083  0.0000E+00  0.1200E+02
 -11.073  0.0000E+00  0.1200E+02
 -11.063  0.0000E+00  0.1200E+02
 -11.053  0.0000E+00  0.1200E+02
 -11.043  0.0000E+00  0.1200E+02
 -11.033  0.0000E+00  0.1200E+02
 -11.023  0.0000E+00  0.1200E+02
 -11.013  0.0000E+00  0.1200E+02
 -11.003  0.0000E+00  0.1200E+02
 -10.993  0.0000E+00  0.1200E+02
 -10.983  0.0000E+00  0.1200E+02
 -10.973  0.0000E+00  0.1200E+02
 -10.963  0.0000E+00  0.1200E+02
 -10.953  0.0000E+00  0.1200E+02
 -10.943  0.0000E+00  0.1200E+02
 -10.933  0.0000E+00  0.1200E+02
 -10.923  0.0000E+00  0.1200E+02
 -10.913  0.0000E+00  0.1200E+02
 -10.903  0.0000E+00  0.1200E+02
 -10.893  0.0000E+00  0.1200E+02
 -10.883  0.0000E+00  0.1200E+02
 -10.873  0.0000E+00  0.1200E+02
 -10.863  0.0000E+00  0.1200E+02
 -10.853  0.0000E+00  0.1200E+02
 -10.843  0.0000E+00  0.1200E+02
 -10.833  0.0000E+00  0.1200E+02
 -10.823  0.0000E+00  0.1200E+02
 -10.813  0.0000E+00  0.1200E+02
 -10.803  0.0000E+00  0.1200E+02
 -10.793  0.0000E+00  0.1200E+02
 -10.783  0.0000E+00  0.1200E+02
 -10.773  0.0000E+00  0.1200E+02
 -10.763  0.0000E+00  0.1200E+02
 -10.753  0.0000E+00  0.1200E+02
 -10.743  0.0000E+00  0.1200E+02
