#  E (eV)   dos(E)     Int dos(E) EFermi =    2.581 eV
 -16.773  0.0000E+00  0.0000E+00
 -16.763  0.3258E+00  0.1252E-02
 -16.753  0.4292E+00  0.4926E-02
 -16.743  0.5958E+00  0.1010E-01
 -16.733  0.6619E+00  0.1639E-01
 -16.723  0.7594E+00  0.2349E-01
 -16.713  0.8605E+00  0.3159E-01
 -16.703  0.9287E+00  0.4058E-01
 -16.693  0.9950E+00  0.5020E-01
 -16.683  0.1065E+01  0.6048E-01
 -16.673  0.1147E+01  0.7155E-01
 -16.663  0.1217E+01  0.8337E-01
 -16.653  0.1270E+01  0.9581E-01
 -16.643  0.1331E+01  0.1088E+00
 -16.633  0.1395E+01  0.1224E+00
 -16.623  0.1462E+01  0.1367E+00
 -16.613  0.1525E+01  0.1516E+00
 -16.603  0.1591E+01  0.1672E+00
 -16.593  0.1646E+01  0.1834E+00
 -16.583  0.1703E+01  0.2002E+00
 -16.573  0.1763E+01  0.2175E+00
 -16.563  0.1830E+01  0.2354E+00
 -16.553  0.1897E+01  0.2541E+00
 -16.543  0.1962E+01  0.2734E+00
 -16.533  0.2025E+01  0.2933E+00
 -16.523  0.2085E+01  0.3139E+00
 -16.513  0.2152E+01  0.3351E+00
 -16.503  0.2222E+01  0.3569E+00
 -16.493  0.2294E+01  0.3795E+00
 -16.483  0.2369E+01  0.4028E+00
 -16.473  0.2442E+01  0.4269E+00
 -16.463  0.2523E+01  0.4517E+00
 -16.453  0.2604E+01  0.4773E+00
 -16.443  0.2686E+01  0.5038E+00
 -16.433  0.2772E+01  0.5310E+00
 -16.423  0.2863E+01  0.5592E+00
 -16.413  0.2968E+01  0.5884E+00
 -16.403  0.3081E+01  0.6186E+00
 -16.393  0.3199E+01  0.6500E+00
 -16.383  0.3322E+01  0.6826E+00
 -16.373  0.3454E+01  0.7165E+00
 -16.363  0.3611E+01  0.7518E+00
 -16.353  0.3796E+01  0.7888E+00
 -16.343  0.4006E+01  0.8278E+00
 -16.333  0.4244E+01  0.8690E+00
 -16.323  0.4523E+01  0.9128E+00
 -16.313  0.4874E+01  0.9597E+00
 -16.303  0.5317E+01  0.1011E+01
 -16.293  0.5769E+01  0.1066E+01
 -16.283  0.6615E+01  0.1126E+01
 -16.273  0.7013E+01  0.1197E+01
 -16.263  0.7322E+01  0.1269E+01
 -16.253  0.7588E+01  0.1344E+01
 -16.243  0.7954E+01  0.1421E+01
 -16.233  0.8713E+01  0.1504E+01
 -16.223  0.9455E+01  0.1596E+01
 -16.213  0.1118E+02  0.1698E+01
 -16.203  0.8171E+01  0.1792E+01
 -16.193  0.7375E+01  0.1868E+01
 -16.183  0.5728E+01  0.1936E+01
 -16.173  0.2575E+01  0.1971E+01
 -16.163  0.1883E+01  0.1993E+01
 -16.153  0.1523E+01  0.2010E+01
 -16.143  0.1284E+01  0.2024E+01
 -16.133  0.1136E+01  0.2036E+01
 -16.123  0.9860E+00  0.2046E+01
 -16.113  0.9123E+00  0.2056E+01
 -16.103  0.8717E+00  0.2065E+01
 -16.093  0.8607E+00  0.2073E+01
 -16.083  0.8629E+00  0.2082E+01
 -16.073  0.8853E+00  0.2091E+01
 -16.063  0.9216E+00  0.2100E+01
 -16.053  0.9631E+00  0.2109E+01
 -16.043  0.1005E+01  0.2119E+01
 -16.033  0.1050E+01  0.2129E+01
 -16.023  0.1101E+01  0.2140E+01
 -16.013  0.1163E+01  0.2151E+01
 -16.003  0.1233E+01  0.2163E+01
 -15.993  0.1308E+01  0.2176E+01
 -15.983  0.1390E+01  0.2190E+01
 -15.973  0.1479E+01  0.2204E+01
 -15.963  0.1577E+01  0.2219E+01
 -15.953  0.1702E+01  0.2236E+01
 -15.943  0.1867E+01  0.2253E+01
 -15.933  0.2028E+01  0.2273E+01
 -15.923  0.2169E+01  0.2294E+01
 -15.913  0.2321E+01  0.2316E+01
 -15.903  0.2509E+01  0.2340E+01
 -15.893  0.2728E+01  0.2367E+01
 -15.883  0.2972E+01  0.2395E+01
 -15.873  0.3265E+01  0.2426E+01
 -15.863  0.3583E+01  0.2460E+01
 -15.853  0.3949E+01  0.2498E+01
 -15.843  0.4459E+01  0.2540E+01
 -15.833  0.5012E+01  0.2587E+01
 -15.823  0.5656E+01  0.2640E+01
 -15.813  0.6702E+01  0.2702E+01
 -15.803  0.8457E+01  0.2777E+01
 -15.793  0.1331E+02  0.2883E+01
 -15.783  0.1394E+02  0.3028E+01
 -15.773  0.1111E+02  0.3160E+01
 -15.763  0.7354E+01  0.3249E+01
 -15.753  0.6057E+01  0.3316E+01
 -15.743  0.5228E+01  0.3372E+01
 -15.733  0.4646E+01  0.3421E+01
 -15.723  0.4065E+01  0.3465E+01
 -15.713  0.3685E+01  0.3503E+01
 -15.703  0.3333E+01  0.3538E+01
 -15.693  0.3024E+01  0.3570E+01
 -15.683  0.2767E+01  0.3599E+01
 -15.673  0.2575E+01  0.3626E+01
 -15.663  0.2404E+01  0.3651E+01
 -15.653  0.2235E+01  0.3674E+01
 -15.643  0.2072E+01  0.3695E+01
 -15.633  0.1912E+01  0.3715E+01
 -15.623  0.1784E+01  0.3734E+01
 -15.613  0.1675E+01  0.3751E+01
 -15.603  0.1578E+01  0.3767E+01
 -15.593  0.1483E+01  0.3783E+01
 -15.583  0.1396E+01  0.3797E+01
 -15.573  0.1327E+01  0.3811E+01
 -15.563  0.1265E+01  0.3823E+01
 -15.553  0.1204E+01  0.3836E+01
 -15.543  0.1147E+01  0.3848E+01
 -15.533  0.1088E+01  0.3859E+01
 -15.523  0.1041E+01  0.3869E+01
 -15.513  0.1006E+01  0.3880E+01
 -15.503  0.9660E+00  0.3890E+01
 -15.493  0.9265E+00  0.3899E+01
 -15.483  0.8913E+00  0.3908E+01
 -15.473  0.8707E+00  0.3917E+01
 -15.463  0.8731E+00  0.3926E+01
 -15.453  0.9004E+00  0.3934E+01
 -15.443  0.9167E+00  0.3944E+01
 -15.433  0.9367E+00  0.3953E+01
 -15.423  0.9484E+00  0.3962E+01
 -15.413  0.9631E+00  0.3972E+01
 -15.403  0.1018E+01  0.3982E+01
 -15.393  0.1089E+01  0.3992E+01
 -15.383  0.1176E+01  0.4003E+01
 -15.373  0.1277E+01  0.4016E+01
 -15.363  0.1365E+01  0.4029E+01
 -15.353  0.1570E+01  0.4044E+01
 -15.343  0.1684E+01  0.4060E+01
 -15.333  0.1859E+01  0.4077E+01
 -15.323  0.2118E+01  0.4097E+01
 -15.313  0.2800E+01  0.4121E+01
 -15.303  0.3162E+01  0.4152E+01
 -15.293  0.3318E+01  0.4184E+01
 -15.283  0.3559E+01  0.4219E+01
 -15.273  0.3846E+01  0.4256E+01
 -15.263  0.4105E+01  0.4295E+01
 -15.253  0.4520E+01  0.4339E+01
 -15.243  0.5052E+01  0.4386E+01
 -15.233  0.5819E+01  0.4441E+01
 -15.223  0.7302E+01  0.4505E+01
 -15.213  0.1109E+02  0.4592E+01
 -15.203  0.1788E+02  0.4734E+01
 -15.193  0.1609E+02  0.4911E+01
 -15.183  0.1168E+02  0.5044E+01
 -15.173  0.5524E+01  0.5115E+01
 -15.163  0.4686E+01  0.5166E+01
 -15.153  0.4096E+01  0.5210E+01
 -15.143  0.3709E+01  0.5248E+01
 -15.133  0.3431E+01  0.5284E+01
 -15.123  0.3187E+01  0.5317E+01
 -15.113  0.2973E+01  0.5348E+01
 -15.103  0.2811E+01  0.5377E+01
 -15.093  0.2674E+01  0.5404E+01
 -15.083  0.2547E+01  0.5430E+01
 -15.073  0.2428E+01  0.5455E+01
 -15.063  0.2317E+01  0.5479E+01
 -15.053  0.2224E+01  0.5501E+01
 -15.043  0.2145E+01  0.5523E+01
 -15.033  0.2070E+01  0.5544E+01
 -15.023  0.1996E+01  0.5565E+01
 -15.013  0.1925E+01  0.5584E+01
 -15.003  0.1854E+01  0.5603E+01
 -14.993  0.1793E+01  0.5621E+01
 -14.983  0.1736E+01  0.5639E+01
 -14.973  0.1681E+01  0.5656E+01
 -14.963  0.1627E+01  0.5673E+01
 -14.953  0.1574E+01  0.5689E+01
 -14.943  0.1521E+01  0.5704E+01
 -14.933  0.1474E+01  0.5719E+01
 -14.923  0.1431E+01  0.5734E+01
 -14.913  0.1389E+01  0.5748E+01
 -14.903  0.1346E+01  0.5761E+01
 -14.893  0.1301E+01  0.5775E+01
 -14.883  0.1257E+01  0.5787E+01
 -14.873  0.1218E+01  0.5800E+01
 -14.863  0.1181E+01  0.5812E+01
 -14.853  0.1146E+01  0.5823E+01
 -14.843  0.1107E+01  0.5835E+01
 -14.833  0.1069E+01  0.5846E+01
 -14.823  0.1031E+01  0.5856E+01
 -14.813  0.9960E+00  0.5866E+01
 -14.803  0.9609E+00  0.5876E+01
 -14.793  0.9259E+00  0.5885E+01
 -14.783  0.8915E+00  0.5895E+01
 -14.773  0.8583E+00  0.5903E+01
 -14.763  0.8273E+00  0.5912E+01
 -14.753  0.7938E+00  0.5920E+01
 -14.743  0.7607E+00  0.5928E+01
 -14.733  0.7230E+00  0.5935E+01
 -14.723  0.6850E+00  0.5942E+01
 -14.713  0.6514E+00  0.5949E+01
 -14.703  0.6221E+00  0.5955E+01
 -14.693  0.5924E+00  0.5961E+01
 -14.683  0.5617E+00  0.5967E+01
 -14.673  0.7071E+01  0.5984E+01
 -14.663  0.1967E+02  0.6162E+01
 -14.653  0.2190E+02  0.6366E+01
 -14.643  0.1068E+03  0.6806E+01
 -14.633  0.3070E+02  0.7307E+01
 -14.623  0.3161E+02  0.7610E+01
 -14.613  0.5429E+02  0.8006E+01
 -14.603  0.6358E+02  0.8618E+01
 -14.593  0.5206E+02  0.9151E+01
 -14.583  0.4534E+02  0.9619E+01
 -14.573  0.9356E+02  0.1034E+02
 -14.563  0.5196E+02  0.1114E+02
 -14.553  0.2978E+02  0.1153E+02
 -14.543  0.1863E+02  0.1177E+02
 -14.533  0.1008E+02  0.1191E+02
 -14.523  0.4622E+01  0.1199E+02
 -14.513  0.0000E+00  0.1200E+02
 -14.503  0.0000E+00  0.1200E+02
 -14.493  0.0000E+00  0.1200E+02
 -14.483  0.0000E+00  0.1200E+02
 -14.473  0.0000E+00  0.1200E+02
 -14.463  0.0000E+00  0.1200E+02
 -14.453  0.0000E+00  0.1200E+02
 -14.443  0.0000E+00  0.1200E+02
 -14.433  0.0000E+00  0.1200E+02
 -14.423  0.0000E+00  0.1200E+02
 -14.413  0.0000E+00  0.1200E+02
 -14.403  0.0000E+00  0.1200E+02
 -14.393  0.0000E+00  0.1200E+02
 -14.383  0.0000E+00  0.1200E+02
 -14.373  0.0000E+00  0.1200E+02
 -14.363  0.0000E+00  0.1200E+02
 -14.353  0.0000E+00  0.1200E+02
 -14.343  0.0000E+00  0.1200E+02
 -14.333  0.0000E+00  0.1200E+02
 -14.323  0.0000E+00  0.1200E+02
 -14.313  0.0000E+00  0.1200E+02
 -14.303  0.0000E+00  0.1200E+02
 -14.293  0.0000E+00  0.1200E+02
 -14.283  0.0000E+00  0.1200E+02
 -14.273  0.0000E+00  0.1200E+02
 -14.263  0.0000E+00  0.1200E+02
 -14.253  0.0000E+00  0.1200E+02
 -14.243  0.0000E+00  0.1200E+02
 -14.233  0.0000E+00  0.1200E+02
 -14.223  0.0000E+00  0.1200E+02
 -14.213  0.0000E+00  0.1200E+02
 -14.203  0.0000E+00  0.1200E+02
 -14.193  0.0000E+00  0.1200E+02
 -14.183  0.0000E+00  0.1200E+02
 -14.173  0.0000E+00  0.1200E+02
 -14.163  0.0000E+00  0.1200E+02
 -14.153  0.0000E+00  0.1200E+02
 -14.143  0.0000E+00  0.1200E+02
 -14.133  0.0000E+00  0.1200E+02
 -14.123  0.0000E+00  0.1200E+02
 -14.113  0.0000E+00  0.1200E+02
 -14.103  0.0000E+00  0.1200E+02
 -14.093  0.0000E+00  0.1200E+02
 -14.083  0.0000E+00  0.1200E+02
 -14.073  0.0000E+00  0.1200E+02
 -14.063  0.0000E+00  0.1200E+02
 -14.053  0.0000E+00  0.1200E+02
 -14.043  0.0000E+00  0.1200E+02
 -14.033  0.0000E+00  0.1200E+02
 -14.023  0.0000E+00  0.1200E+02
 -14.013  0.0000E+00  0.1200E+02
 -14.003  0.0000E+00  0.1200E+02
 -13.993  0.0000E+00  0.1200E+02
 -13.983  0.0000E+00  0.1200E+02
 -13.973  0.0000E+00  0.1200E+02
 -13.963  0.0000E+00  0.1200E+02
 -13.953  0.0000E+00  0.1200E+02
 -13.943  0.0000E+00  0.1200E+02
 -13.933  0.0000E+00  0.1200E+02
 -13.923  0.0000E+00  0.1200E+02
 -13.913  0.0000E+00  0.1200E+02
 -13.903  0.0000E+00  0.1200E+02
 -13.893  0.0000E+00  0.1200E+02
 -13.883  0.0000E+00  0.1200E+02
 -13.873  0.0000E+00  0.1200E+02
 -13.863  0.0000E+00  0.1200E+02
 -13.853  0.0000E+00  0.1200E+02
 -13.843  0.0000E+00  0.1200E+02
 -13.833  0.0000E+00  0.1200E+02
 -13.823  0.0000E+00  0.1200E+02
 -13.813  0.0000E+00  0.1200E+02
 -13.803  0.0000E+00  0.1200E+02
 -13.793  0.0000E+00  0.1200E+02
 -13.783  0.0000E+00  0.1200E+02
 -13.773  0.0000E+00  0.1200E+02
 -13.763  0.0000E+00  0.1200E+02
 -13.753  0.0000E+00  0.1200E+02
 -13.743  0.0000E+00  0.1200E+02
 -13.733  0.0000E+00  0.1200E+02
 -13.723  0.0000E+00  0.1200E+02
 -13.713  0.0000E+00  0.1200E+02
 -13.703  0.0000E+00  0.1200E+02
 -13.693  0.0000E+00  0.1200E+02
 -13.683  0.0000E+00  0.1200E+02
 -13.673  0.0000E+00  0.1200E+02
 -13.663  0.0000E+00  0.1200E+02
 -13.653  0.0000E+00  0.1200E+02
 -13.643  0.0000E+00  0.1200E+02
 -13.633  0.0000E+00  0.1200E+02
 -13.623  0.0000E+00  0.1200E+02
 -13.613  0.0000E+00  0.1200E+02
 -13.603  0.0000E+00  0.1200E+02
 -13.593  0.0000E+00  0.1200E+02
 -13.583  0.0000E+00  0.1200E+02
 -13.573  0.0000E+00  0.1200E+02
 -13.563  0.0000E+00  0.1200E+02
 -13.553  0.0000E+00  0.1200E+02
 -13.543  0.0000E+00  0.1200E+02
 -13.533  0.0000E+00  0.1200E+02
 -13.523  0.0000E+00  0.1200E+02
 -13.513  0.0000E+00  0.1200E+02
 -13.503  0.0000E+00  0.1200E+02
 -13.493  0.0000E+00  0.1200E+02
 -13.483  0.0000E+00  0.1200E+02
 -13.473  0.0000E+00  0.1200E+02
 -13.463  0.0000E+00  0.1200E+02
 -13.453  0.0000E+00  0.1200E+02
 -13.443  0.0000E+00  0.1200E+02
 -13.433  0.0000E+00  0.1200E+02
 -13.423  0.0000E+00  0.1200E+02
 -13.413  0.0000E+00  0.1200E+02
 -13.403  0.0000E+00  0.1200E+02
 -13.393  0.0000E+00  0.1200E+02
 -13.383  0.0000E+00  0.1200E+02
 -13.373  0.0000E+00  0.1200E+02
 -13.363  0.0000E+00  0.1200E+02
 -13.353  0.0000E+00  0.1200E+02
 -13.343  0.0000E+00  0.1200E+02
 -13.333  0.0000E+00  0.1200E+02
 -13.323  0.0000E+00  0.1200E+02
 -13.313  0.0000E+00  0.1200E+02
 -13.303  0.0000E+00  0.1200E+02
 -13.293  0.0000E+00  0.1200E+02
 -13.283  0.0000E+00  0.1200E+02
 -13.273  0.0000E+00  0.1200E+02
 -13.263  0.0000E+00  0.1200E+02
 -13.253  0.0000E+00  0.1200E+02
 -13.243  0.0000E+00  0.1200E+02
 -13.233  0.0000E+00  0.1200E+02
 -13.223  0.0000E+00  0.1200E+02
 -13.213  0.0000E+00  0.1200E+02
 -13.203  0.0000E+00  0.1200E+02
 -13.193  0.0000E+00  0.1200E+02
 -13.183  0.0000E+00  0.1200E+02
 -13.173  0.0000E+00  0.1200E+02
 -13.163  0.0000E+00  0.1200E+02
 -13.153  0.0000E+00  0.1200E+02
 -13.143  0.0000E+00  0.1200E+02
 -13.133  0.0000E+00  0.1200E+02
 -13.123  0.0000E+00  0.1200E+02
 -13.113  0.0000E+00  0.1200E+02
 -13.103  0.0000E+00  0.1200E+02
 -13.093  0.0000E+00  0.1200E+02
 -13.083  0.0000E+00  0.1200E+02
 -13.073  0.0000E+00  0.1200E+02
 -13.063  0.0000E+00  0.1200E+02
 -13.053  0.0000E+00  0.1200E+02
 -13.043  0.0000E+00  0.1200E+02
 -13.033  0.0000E+00  0.1200E+02
 -13.023  0.0000E+00  0.1200E+02
 -13.013  0.0000E+00  0.1200E+02
 -13.003  0.0000E+00  0.1200E+02
 -12.993  0.0000E+00  0.1200E+02
 -12.983  0.0000E+00  0.1200E+02
 -12.973  0.0000E+00  0.1200E+02
 -12.963  0.0000E+00  0.1200E+02
 -12.953  0.0000E+00  0.1200E+02
 -12.943  0.0000E+00  0.1200E+02
 -12.933  0.0000E+00  0.1200E+02
 -12.923  0.0000E+00  0.1200E+02
 -12.913  0.0000E+00  0.1200E+02
 -12.903  0.0000E+00  0.1200E+02
 -12.893  0.0000E+00  0.1200E+02
 -12.883  0.0000E+00  0.1200E+02
 -12.873  0.0000E+00  0.1200E+02
 -12.863  0.0000E+00  0.1200E+02
 -12.853  0.0000E+00  0.1200E+02
 -12.843  0.0000E+00  0.1200E+02
 -12.833  0.0000E+00  0.1200E+02
 -12.823  0.0000E+00  0.1200E+02
 -12.813  0.0000E+00  0.1200E+02
 -12.803  0.0000E+00  0.1200E+02
 -12.793  0.0000E+00  0.1200E+02
 -12.783  0.0000E+00  0.1200E+02
 -12.773  0.0000E+00  0.1200E+02
 -12.763  0.0000E+00  0.1200E+02
 -12.753  0.0000E+00  0.1200E+02
 -12.743  0.0000E+00  0.1200E+02
 -12.733  0.0000E+00  0.1200E+02
 -12.723  0.0000E+00  0.1200E+02
 -12.713  0.0000E+00  0.1200E+02
 -12.703  0.0000E+00  0.1200E+02
 -12.693  0.0000E+00  0.1200E+02
 -12.683  0.0000E+00  0.1200E+02
 -12.673  0.0000E+00  0.1200E+02
 -12.663  0.0000E+00  0.1200E+02
 -12.653  0.0000E+00  0.1200E+02
 -12.643  0.0000E+00  0.1200E+02
 -12.633  0.0000E+00  0.1200E+02
 -12.623  0.0000E+00  0.1200E+02
 -12.613  0.0000E+00  0.1200E+02
 -12.603  0.0000E+00  0.1200E+02
 -12.593  0.0000E+00  0.1200E+02
 -12.583  0.0000E+00  0.1200E+02
 -12.573  0.0000E+00  0.1200E+02
 -12.563  0.0000E+00  0.1200E+02
 -12.553  0.0000E+00  0.1200E+02
 -12.543  0.0000E+00  0.1200E+02
 -12.533  0.0000E+00  0.1200E+02
 -12.523  0.0000E+00  0.1200E+02
 -12.513  0.0000E+00  0.1200E+02
 -12.503  0.0000E+00  0.1200E+02
 -12.493  0.0000E+00  0.1200E+02
 -12.483  0.0000E+00  0.1200E+02
 -12.473  0.0000E+00  0.1200E+02
 -12.463  0.0000E+00  0.1200E+02
 -12.453  0.0000E+00  0.1200E+02
 -12.443  0.0000E+00  0.1200E+02
 -12.433  0.0000E+00  0.1200E+02
 -12.423  0.0000E+00  0.1200E+02
 -12.413  0.0000E+00  0.1200E+02
 -12.403  0.0000E+00  0.1200E+02
 -12.393  0.0000E+00  0.1200E+02
 -12.383  0.0000E+00  0.1200E+02
 -12.373  0.0000E+00  0.1200E+02
 -12.363  0.0000E+00  0.1200E+02
 -12.353  0.0000E+00  0.1200E+02
 -12.343  0.0000E+00  0.1200E+02
 -12.333  0.0000E+00  0.1200E+02
 -12.323  0.0000E+00  0.1200E+02
 -12.313  0.0000E+00  0.1200E+02
 -12.303  0.0000E+00  0.1200E+02
 -12.293  0.0000E+00  0.1200E+02
 -12.283  0.0000E+00  0.1200E+02
 -12.273  0.0000E+00  0.1200E+02
 -12.263  0.0000E+00  0.1200E+02
 -12.253  0.0000E+00  0.1200E+02
 -12.243  0.0000E+00  0.1200E+02
 -12.233  0.0000E+00  0.1200E+02
 -12.223  0.0000E+00  0.1200E+02
 -12.213  0.0000E+00  0.1200E+02
 -12.203  0.0000E+00  0.1200E+02
 -12.193  0.0000E+00  0.1200E+02
 -12.183  0.0000E+00  0.1200E+02
 -12.173  0.0000E+00  0.1200E+02
 -12.163  0.0000E+00  0.1200E+02
 -12.153  0.0000E+00  0.1200E+02
 -12.143  0.0000E+00  0.1200E+02
 -12.133  0.0000E+00  0.1200E+02
 -12.123  0.0000E+00  0.1200E+02
 -12.113  0.0000E+00  0.1200E+02
 -12.103  0.0000E+00  0.1200E+02
 -12.093  0.0000E+00  0.1200E+02
 -12.083  0.0000E+00  0.1200E+02
 -12.073  0.0000E+00  0.1200E+02
 -12.063  0.0000E+00  0.1200E+02
 -12.053  0.0000E+00  0.1200E+02
 -12.043  0.0000E+00  0.1200E+02
 -12.033  0.0000E+00  0.1200E+02
 -12.023  0.0000E+00  0.1200E+02
 -12.013  0.0000E+00  0.1200E+02
 -12.003  0.0000E+00  0.1200E+02
 -11.993  0.0000E+00  0.1200E+02
 -11.983  0.0000E+00  0.1200E+02
 -11.973  0.0000E+00  0.1200E+02
 -11.963  0.0000E+00  0.1200E+02
 -11.953  0.0000E+00  0.1200E+02
 -11.943  0.0000E+00  0.1200E+02
 -11.933  0.0000E+00  0.1200E+02
 -11.923  0.0000E+00  0.1200E+02
 -11.913  0.0000E+00  0.1200E+02
 -11.903  0.0000E+00  0.1200E+02
 -11.893  0.0000E+00  0.1200E+02
 -11.883  0.0000E+00  0.1200E+02
 -11.873  0.0000E+00  0.1200E+02
 -11.863  0.0000E+00  0.1200E+02
 -11.853  0.0000E+00  0.1200E+02
 -11.843  0.0000E+00  0.1200E+02
 -11.833  0.0000E+00  0.1200E+02
 -11.823  0.0000E+00  0.1200E+02
 -11.813  0.0000E+00  0.1200E+02
 -11.803  0.0000E+00  0.1200E+02
 -11.793  0.0000E+00  0.1200E+02
 -11.783  0.0000E+00  0.1200E+02
 -11.773  0.0000E+00  0.1200E+02
 -11.763  0.0000E+00  0.1200E+02
 -11.753  0.0000E+00  0.1200E+02
 -11.743  0.0000E+00  0.1200E+02
 -11.733  0.0000E+00  0.1200E+02
 -11.723  0.0000E+00  0.1200E+02
 -11.713  0.0000E+00  0.1200E+02
 -11.703  0.0000E+00  0.1200E+02
 -11.693  0.0000E+00  0.1200E+02
 -11.683  0.0000E+00  0.1200E+02
 -11.673  0.0000E+00  0.1200E+02
 -11.663  0.0000E+00  0.1200E+02
 -11.653  0.0000E+00  0.1200E+02
 -11.643  0.0000E+00  0.1200E+02
 -11.633  0.0000E+00  0.1200E+02
 -11.623  0.0000E+00  0.1200E+02
 -11.613  0.0000E+00  0.1200E+02
 -11.603  0.0000E+00  0.1200E+02
 -11.593  0.0000E+00  0.1200E+02
 -11.583  0.0000E+00  0.1200E+02
 -11.573  0.0000E+00  0.1200E+02
 -11.563  0.0000E+00  0.1200E+02
 -11.553  0.0000E+00  0.1200E+02
 -11.543  0.0000E+00  0.1200E+02
 -11.533  0.0000E+00  0.1200E+02
 -11.523  0.0000E+00  0.1200E+02
 -11.513  0.0000E+00  0.1200E+02
 -11.503  0.0000E+00  0.1200E+02
 -11.493  0.0000E+00  0.1200E+02
 -11.483  0.0000E+00  0.1200E+02
 -11.473  0.0000E+00  0.1200E+02
 -11.463  0.0000E+00  0.1200E+02
 -11.453  0.0000E+00  0.1200E+02
 -11.443  0.0000E+00  0.1200E+02
 -11.433  0.0000E+00  0.1200E+02
 -11.423  0.0000E+00  0.1200E+02
 -11.413  0.0000E+00  0.1200E+02
 -11.403  0.0000E+00  0.1200E+02
 -11.393  0.0000E+00  0.1200E+02
 -11.383  0.0000E+00  0.1200E+02
 -11.373  0.0000E+00  0.1200E+02
 -11.363  0.0000E+00  0.1200E+02
 -11.353  0.0000E+00  0.1200E+02
 -11.343  0.0000E+00  0.1200E+02
 -11.333  0.0000E+00  0.1200E+02
 -11.323  0.0000E+00  0.1200E+02
 -11.313  0.0000E+00  0.1200E+02
 -11.303  0.0000E+00  0.1200E+02
 -11.293  0.0000E+00  0.1200E+02
 -11.283  0.0000E+00  0.1200E+02
 -11.273  0.0000E+00  0.1200E+02
 -11.263  0.0000E+00  0.1200E+02
 -11.253  0.0000E+00  0.1200E+02
 -11.243  0.0000E+00  0.1200E+02
 -11.233  0.0000E+00  0.1200E+02
 -11.223  0.0000E+00  0.1200E+02
 -11.213  0.0000E+00  0.1200E+02
 -11.203  0.0000E+00  0.1200E+02
 -11.193  0.0000E+00  0.1200E+02
 -11.183  0.0000E+00  0.1200E+02
 -11.173  0.0000E+00  0.1200E+02
 -11.163  0.0000E+00  0.1200E+02
 -11.153  0.0000E+00  0.1200E+02
 -11.143  0.0000E+00  0.1200E+02
 -11.133  0.0000E+00  0.1200E+02
 -11.123  0.0000E+00  0.1200E+02
 -11.113  0.0000E+00  0.1200E+02
 -11.103  0.0000E+00  0.1200E+02
 -11.093  0.0000E+00  0.1200E+02
 -11.083  0.0000E+00  0.1200E+02
 -11.073  0.0000E+00  0.1200E+02
 -11.063  0.0000E+00  0.1200E+02
 -11.053  0.0000E+00  0.1200E+02
 -11.043  0.0000E+00  0.1200E+02
 -11.033  0.0000E+00  0.1200E+02
 -11.023  0.0000E+00  0.1200E+02
 -11.013  0.0000E+00  0.1200E+02
 -11.003  0.0000E+00  0.1200E+02
 -10.993  0.0000E+00  0.1200E+02
 -10.983  0.0000E+00  0.1200E+02
 -10.973  0.0000E+00  0.1200E+02
 -10.963  0.0000E+00  0.1200E+02
 -10.953  0.0000E+00  0.1200E+02
 -10.943  0.0000E+00  0.1200E+02
 -10.933  0.0000E+00  0.1200E+02
 -10.923  0.0000E+00  0.1200E+02
 -10.913  0.0000E+00  0.1200E+02
 -10.903  0.0000E+00  0.1200E+02
 -10.893  0.0000E+00  0.1200E+02
 -10.883  0.0000E+00  0.1200E+02
 -10.873  0.0000E+00  0.1200E+02
 -10.863  0.0000E+00  0.1200E+02
 -10.853  0.0000E+00  0.1200E+02
 -10.843  0.0000E+00  0.1200E+02
 -10.833  0.0000E+00  0.1200E+02
 -10.823  0.0000E+00  0.1200E+02
 -10.813  0.0000E+00  0.1200E+02
 -10.803  0.0000E+00  0.1200E+02
 -10.793  0.0000E+00  0.1200E+02
 -10.783  0.0000E+00  0.1200E+02
 -10.773  0.0000E+00  0.1200E+02
 -10.763  0.0000E+00  0.1200E+02
 -10.753  0.0000E+00  0.1200E+02
 -10.743  0.0000E+00  0.1200E+02
