#  E (eV)   dos(E)     Int dos(E) EFermi =    2.580 eV
 -16.773  0.0000E+00  0.0000E+00
 -16.763  0.3167E+00  0.1494E-02
 -16.753  0.4612E+00  0.5191E-02
 -16.743  0.5741E+00  0.1051E-01
 -16.733  0.6734E+00  0.1671E-01
 -16.723  0.7820E+00  0.2400E-01
 -16.713  0.8527E+00  0.3218E-01
 -16.703  0.9223E+00  0.4106E-01
 -16.693  0.1009E+01  0.5071E-01
 -16.683  0.1085E+01  0.6118E-01
 -16.673  0.1141E+01  0.7231E-01
 -16.663  0.1205E+01  0.8403E-01
 -16.653  0.1274E+01  0.9643E-01
 -16.643  0.1340E+01  0.1095E+00
 -16.633  0.1406E+01  0.1233E+00
 -16.623  0.1462E+01  0.1376E+00
 -16.613  0.1520E+01  0.1525E+00
 -16.603  0.1584E+01  0.1680E+00
 -16.593  0.1650E+01  0.1842E+00
 -16.583  0.1713E+01  0.2010E+00
 -16.573  0.1771E+01  0.2184E+00
 -16.563  0.1830E+01  0.2364E+00
 -16.553  0.1893E+01  0.2550E+00
 -16.543  0.1958E+01  0.2743E+00
 -16.533  0.2025E+01  0.2942E+00
 -16.523  0.2089E+01  0.3148E+00
 -16.513  0.2159E+01  0.3360E+00
 -16.503  0.2225E+01  0.3579E+00
 -16.493  0.2293E+01  0.3805E+00
 -16.483  0.2363E+01  0.4038E+00
 -16.473  0.2441E+01  0.4278E+00
 -16.463  0.2523E+01  0.4526E+00
 -16.453  0.2604E+01  0.4783E+00
 -16.443  0.2687E+01  0.5047E+00
 -16.433  0.2770E+01  0.5320E+00
 -16.423  0.2865E+01  0.5602E+00
 -16.413  0.2967E+01  0.5893E+00
 -16.403  0.3074E+01  0.6195E+00
 -16.393  0.3188E+01  0.6508E+00
 -16.383  0.3311E+01  0.6833E+00
 -16.373  0.3453E+01  0.7171E+00
 -16.363  0.3608E+01  0.7524E+00
 -16.353  0.3780E+01  0.7893E+00
 -16.343  0.3976E+01  0.8281E+00
 -16.333  0.4216E+01  0.8690E+00
 -16.323  0.4509E+01  0.9126E+00
 -16.313  0.4857E+01  0.9593E+00
 -16.303  0.5265E+01  0.1010E+01
 -16.293  0.5737E+01  0.1065E+01
 -16.283  0.6435E+01  0.1125E+01
 -16.273  0.7051E+01  0.1196E+01
 -16.263  0.7248E+01  0.1267E+01
 -16.253  0.7587E+01  0.1341E+01
 -16.243  0.8061E+01  0.1419E+01
 -16.233  0.8657E+01  0.1502E+01
 -16.223  0.9569E+01  0.1593E+01
 -16.213  0.1124E+02  0.1696E+01
 -16.203  0.8284E+01  0.1791E+01
 -16.193  0.7136E+01  0.1867E+01
 -16.183  0.6160E+01  0.1934E+01
 -16.173  0.2646E+01  0.1970E+01
 -16.163  0.1918E+01  0.1993E+01
 -16.153  0.1516E+01  0.2010E+01
 -16.143  0.1274E+01  0.2024E+01
 -16.133  0.1121E+01  0.2036E+01
 -16.123  0.1007E+01  0.2046E+01
 -16.113  0.9457E+00  0.2056E+01
 -16.103  0.9125E+00  0.2065E+01
 -16.093  0.8936E+00  0.2074E+01
 -16.083  0.8974E+00  0.2083E+01
 -16.073  0.8576E+00  0.2092E+01
 -16.063  0.9012E+00  0.2101E+01
 -16.053  0.9506E+00  0.2110E+01
 -16.043  0.1004E+01  0.2120E+01
 -16.033  0.1056E+01  0.2130E+01
 -16.023  0.1105E+01  0.2141E+01
 -16.013  0.1154E+01  0.2152E+01
 -16.003  0.1214E+01  0.2164E+01
 -15.993  0.1273E+01  0.2176E+01
 -15.983  0.1418E+01  0.2190E+01
 -15.973  0.1501E+01  0.2205E+01
 -15.963  0.1606E+01  0.2220E+01
 -15.953  0.1730E+01  0.2237E+01
 -15.943  0.1863E+01  0.2255E+01
 -15.933  0.2007E+01  0.2274E+01
 -15.923  0.2147E+01  0.2295E+01
 -15.913  0.2337E+01  0.2317E+01
 -15.903  0.2544E+01  0.2342E+01
 -15.893  0.2749E+01  0.2368E+01
 -15.883  0.2958E+01  0.2397E+01
 -15.873  0.3238E+01  0.2427E+01
 -15.863  0.3581E+01  0.2462E+01
 -15.853  0.3975E+01  0.2499E+01
 -15.843  0.4396E+01  0.2541E+01
 -15.833  0.5005E+01  0.2588E+01
 -15.823  0.5691E+01  0.2641E+01
 -15.813  0.6745E+01  0.2703E+01
 -15.803  0.8449E+01  0.2778E+01
 -15.793  0.1276E+02  0.2885E+01
 -15.783  0.1367E+02  0.3027E+01
 -15.773  0.1096E+02  0.3158E+01
 -15.763  0.7439E+01  0.3248E+01
 -15.753  0.6046E+01  0.3315E+01
 -15.743  0.5241E+01  0.3371E+01
 -15.733  0.4542E+01  0.3420E+01
 -15.723  0.4080E+01  0.3463E+01
 -15.713  0.3654E+01  0.3502E+01
 -15.703  0.3326E+01  0.3537E+01
 -15.693  0.3036E+01  0.3569E+01
 -15.683  0.2812E+01  0.3598E+01
 -15.673  0.2602E+01  0.3625E+01
 -15.663  0.2388E+01  0.3650E+01
 -15.653  0.2221E+01  0.3673E+01
 -15.643  0.2068E+01  0.3694E+01
 -15.633  0.1919E+01  0.3714E+01
 -15.623  0.1804E+01  0.3733E+01
 -15.613  0.1699E+01  0.3750E+01
 -15.603  0.1585E+01  0.3767E+01
 -15.593  0.1482E+01  0.3782E+01
 -15.583  0.1389E+01  0.3796E+01
 -15.573  0.1328E+01  0.3810E+01
 -15.563  0.1266E+01  0.3823E+01
 -15.553  0.1205E+01  0.3835E+01
 -15.543  0.1142E+01  0.3847E+01
 -15.533  0.1085E+01  0.3858E+01
 -15.523  0.1037E+01  0.3869E+01
 -15.513  0.9878E+00  0.3879E+01
 -15.503  0.9585E+00  0.3889E+01
 -15.493  0.9334E+00  0.3898E+01
 -15.483  0.9189E+00  0.3907E+01
 -15.473  0.9055E+00  0.3916E+01
 -15.463  0.9020E+00  0.3925E+01
 -15.453  0.8998E+00  0.3934E+01
 -15.443  0.9014E+00  0.3943E+01
 -15.433  0.9054E+00  0.3952E+01
 -15.423  0.9683E+00  0.3962E+01
 -15.413  0.1004E+01  0.3972E+01
 -15.403  0.1032E+01  0.3982E+01
 -15.393  0.1080E+01  0.3992E+01
 -15.383  0.1163E+01  0.4003E+01
 -15.373  0.1272E+01  0.4016E+01
 -15.363  0.1406E+01  0.4029E+01
 -15.353  0.1515E+01  0.4044E+01
 -15.343  0.1736E+01  0.4060E+01
 -15.333  0.1884E+01  0.4078E+01
 -15.323  0.2175E+01  0.4098E+01
 -15.313  0.2955E+01  0.4122E+01
 -15.303  0.3148E+01  0.4153E+01
 -15.293  0.3349E+01  0.4186E+01
 -15.283  0.3562E+01  0.4220E+01
 -15.273  0.3783E+01  0.4257E+01
 -15.263  0.4151E+01  0.4296E+01
 -15.253  0.4502E+01  0.4340E+01
 -15.243  0.5057E+01  0.4387E+01
 -15.233  0.5806E+01  0.4441E+01
 -15.223  0.7277E+01  0.4506E+01
 -15.213  0.1109E+02  0.4593E+01
 -15.203  0.1847E+02  0.4736E+01
 -15.193  0.1570E+02  0.4913E+01
 -15.183  0.1156E+02  0.5044E+01
 -15.173  0.5559E+01  0.5116E+01
 -15.163  0.4586E+01  0.5166E+01
 -15.153  0.4098E+01  0.5210E+01
 -15.143  0.3700E+01  0.5249E+01
 -15.133  0.3387E+01  0.5284E+01
 -15.123  0.3172E+01  0.5317E+01
 -15.113  0.2979E+01  0.5347E+01
 -15.103  0.2806E+01  0.5376E+01
 -15.093  0.2651E+01  0.5404E+01
 -15.083  0.2534E+01  0.5430E+01
 -15.073  0.2426E+01  0.5454E+01
 -15.063  0.2324E+01  0.5478E+01
 -15.053  0.2227E+01  0.5501E+01
 -15.043  0.2140E+01  0.5523E+01
 -15.033  0.2067E+01  0.5544E+01
 -15.023  0.1994E+01  0.5564E+01
 -15.013  0.1923E+01  0.5584E+01
 -15.003  0.1855E+01  0.5602E+01
 -14.993  0.1788E+01  0.5621E+01
 -14.983  0.1733E+01  0.5638E+01
 -14.973  0.1679E+01  0.5655E+01
 -14.963  0.1626E+01  0.5672E+01
 -14.953  0.1575E+01  0.5688E+01
 -14.943  0.1524E+01  0.5703E+01
 -14.933  0.1476E+01  0.5718E+01
 -14.923  0.1432E+01  0.5733E+01
 -14.913  0.1388E+01  0.5747E+01
 -14.903  0.1344E+01  0.5761E+01
 -14.893  0.1301E+01  0.5774E+01
 -14.883  0.1258E+01  0.5787E+01
 -14.873  0.1220E+01  0.5799E+01
 -14.863  0.1183E+01  0.5811E+01
 -14.853  0.1146E+01  0.5823E+01
 -14.843  0.1106E+01  0.5834E+01
 -14.833  0.1067E+01  0.5845E+01
 -14.823  0.1032E+01  0.5855E+01
 -14.813  0.9990E+00  0.5865E+01
 -14.803  0.9658E+00  0.5875E+01
 -14.793  0.9292E+00  0.5885E+01
 -14.783  0.8929E+00  0.5894E+01
 -14.773  0.8595E+00  0.5903E+01
 -14.763  0.8252E+00  0.5911E+01
 -14.753  0.7912E+00  0.5919E+01
 -14.743  0.7578E+00  0.5927E+01
 -14.733  0.7281E+00  0.5934E+01
 -14.723  0.6955E+00  0.5941E+01
 -14.713  0.6612E+00  0.5948E+01
 -14.703  0.6216E+00  0.5955E+01
 -14.693  0.5842E+00  0.5961E+01
 -14.683  0.5542E+00  0.5966E+01
 -14.673  0.7229E+01  0.5985E+01
 -14.663  0.1980E+02  0.6163E+01
 -14.653  0.2172E+02  0.6367E+01
 -14.643  0.1062E+03  0.6807E+01
 -14.633  0.3110E+02  0.7306E+01
 -14.623  0.3208E+02  0.7611E+01
 -14.613  0.5366E+02  0.8007E+01
 -14.603  0.6392E+02  0.8618E+01
 -14.593  0.5184E+02  0.9149E+01
 -14.583  0.4571E+02  0.9618E+01
 -14.573  0.9212E+02  0.1034E+02
 -14.563  0.5231E+02  0.1114E+02
 -14.553  0.2978E+02  0.1153E+02
 -14.543  0.1865E+02  0.1177E+02
 -14.533  0.1011E+02  0.1191E+02
 -14.523  0.4781E+01  0.1198E+02
 -14.513  0.0000E+00  0.1200E+02
 -14.503  0.0000E+00  0.1200E+02
 -14.493  0.0000E+00  0.1200E+02
 -14.483  0.0000E+00  0.1200E+02
 -14.473  0.0000E+00  0.1200E+02
 -14.463  0.0000E+00  0.1200E+02
 -14.453  0.0000E+00  0.1200E+02
 -14.443  0.0000E+00  0.1200E+02
 -14.433  0.0000E+00  0.1200E+02
 -14.423  0.0000E+00  0.1200E+02
 -14.413  0.0000E+00  0.1200E+02
 -14.403  0.0000E+00  0.1200E+02
 -14.393  0.0000E+00  0.1200E+02
 -14.383  0.0000E+00  0.1200E+02
 -14.373  0.0000E+00  0.1200E+02
 -14.363  0.0000E+00  0.1200E+02
 -14.353  0.0000E+00  0.1200E+02
 -14.343  0.0000E+00  0.1200E+02
 -14.333  0.0000E+00  0.1200E+02
 -14.323  0.0000E+00  0.1200E+02
 -14.313  0.0000E+00  0.1200E+02
 -14.303  0.0000E+00  0.1200E+02
 -14.293  0.0000E+00  0.1200E+02
 -14.283  0.0000E+00  0.1200E+02
 -14.273  0.0000E+00  0.1200E+02
 -14.263  0.0000E+00  0.1200E+02
 -14.253  0.0000E+00  0.1200E+02
 -14.243  0.0000E+00  0.1200E+02
 -14.233  0.0000E+00  0.1200E+02
 -14.223  0.0000E+00  0.1200E+02
 -14.213  0.0000E+00  0.1200E+02
 -14.203  0.0000E+00  0.1200E+02
 -14.193  0.0000E+00  0.1200E+02
 -14.183  0.0000E+00  0.1200E+02
 -14.173  0.0000E+00  0.1200E+02
 -14.163  0.0000E+00  0.1200E+02
 -14.153  0.0000E+00  0.1200E+02
 -14.143  0.0000E+00  0.1200E+02
 -14.133  0.0000E+00  0.1200E+02
 -14.123  0.0000E+00  0.1200E+02
 -14.113  0.0000E+00  0.1200E+02
 -14.103  0.0000E+00  0.1200E+02
 -14.093  0.0000E+00  0.1200E+02
 -14.083  0.0000E+00  0.1200E+02
 -14.073  0.0000E+00  0.1200E+02
 -14.063  0.0000E+00  0.1200E+02
 -14.053  0.0000E+00  0.1200E+02
 -14.043  0.0000E+00  0.1200E+02
 -14.033  0.0000E+00  0.1200E+02
 -14.023  0.0000E+00  0.1200E+02
 -14.013  0.0000E+00  0.1200E+02
 -14.003  0.0000E+00  0.1200E+02
 -13.993  0.0000E+00  0.1200E+02
 -13.983  0.0000E+00  0.1200E+02
 -13.973  0.0000E+00  0.1200E+02
 -13.963  0.0000E+00  0.1200E+02
 -13.953  0.0000E+00  0.1200E+02
 -13.943  0.0000E+00  0.1200E+02
 -13.933  0.0000E+00  0.1200E+02
 -13.923  0.0000E+00  0.1200E+02
 -13.913  0.0000E+00  0.1200E+02
 -13.903  0.0000E+00  0.1200E+02
 -13.893  0.0000E+00  0.1200E+02
 -13.883  0.0000E+00  0.1200E+02
 -13.873  0.0000E+00  0.1200E+02
 -13.863  0.0000E+00  0.1200E+02
 -13.853  0.0000E+00  0.1200E+02
 -13.843  0.0000E+00  0.1200E+02
 -13.833  0.0000E+00  0.1200E+02
 -13.823  0.0000E+00  0.1200E+02
 -13.813  0.0000E+00  0.1200E+02
 -13.803  0.0000E+00  0.1200E+02
 -13.793  0.0000E+00  0.1200E+02
 -13.783  0.0000E+00  0.1200E+02
 -13.773  0.0000E+00  0.1200E+02
 -13.763  0.0000E+00  0.1200E+02
 -13.753  0.0000E+00  0.1200E+02
 -13.743  0.0000E+00  0.1200E+02
 -13.733  0.0000E+00  0.1200E+02
 -13.723  0.0000E+00  0.1200E+02
 -13.713  0.0000E+00  0.1200E+02
 -13.703  0.0000E+00  0.1200E+02
 -13.693  0.0000E+00  0.1200E+02
 -13.683  0.0000E+00  0.1200E+02
 -13.673  0.0000E+00  0.1200E+02
 -13.663  0.0000E+00  0.1200E+02
 -13.653  0.0000E+00  0.1200E+02
 -13.643  0.0000E+00  0.1200E+02
 -13.633  0.0000E+00  0.1200E+02
 -13.623  0.0000E+00  0.1200E+02
 -13.613  0.0000E+00  0.1200E+02
 -13.603  0.0000E+00  0.1200E+02
 -13.593  0.0000E+00  0.1200E+02
 -13.583  0.0000E+00  0.1200E+02
 -13.573  0.0000E+00  0.1200E+02
 -13.563  0.0000E+00  0.1200E+02
 -13.553  0.0000E+00  0.1200E+02
 -13.543  0.0000E+00  0.1200E+02
 -13.533  0.0000E+00  0.1200E+02
 -13.523  0.0000E+00  0.1200E+02
 -13.513  0.0000E+00  0.1200E+02
 -13.503  0.0000E+00  0.1200E+02
 -13.493  0.0000E+00  0.1200E+02
 -13.483  0.0000E+00  0.1200E+02
 -13.473  0.0000E+00  0.1200E+02
 -13.463  0.0000E+00  0.1200E+02
 -13.453  0.0000E+00  0.1200E+02
 -13.443  0.0000E+00  0.1200E+02
 -13.433  0.0000E+00  0.1200E+02
 -13.423  0.0000E+00  0.1200E+02
 -13.413  0.0000E+00  0.1200E+02
 -13.403  0.0000E+00  0.1200E+02
 -13.393  0.0000E+00  0.1200E+02
 -13.383  0.0000E+00  0.1200E+02
 -13.373  0.0000E+00  0.1200E+02
 -13.363  0.0000E+00  0.1200E+02
 -13.353  0.0000E+00  0.1200E+02
 -13.343  0.0000E+00  0.1200E+02
 -13.333  0.0000E+00  0.1200E+02
 -13.323  0.0000E+00  0.1200E+02
 -13.313  0.0000E+00  0.1200E+02
 -13.303  0.0000E+00  0.1200E+02
 -13.293  0.0000E+00  0.1200E+02
 -13.283  0.0000E+00  0.1200E+02
 -13.273  0.0000E+00  0.1200E+02
 -13.263  0.0000E+00  0.1200E+02
 -13.253  0.0000E+00  0.1200E+02
 -13.243  0.0000E+00  0.1200E+02
 -13.233  0.0000E+00  0.1200E+02
 -13.223  0.0000E+00  0.1200E+02
 -13.213  0.0000E+00  0.1200E+02
 -13.203  0.0000E+00  0.1200E+02
 -13.193  0.0000E+00  0.1200E+02
 -13.183  0.0000E+00  0.1200E+02
 -13.173  0.0000E+00  0.1200E+02
 -13.163  0.0000E+00  0.1200E+02
 -13.153  0.0000E+00  0.1200E+02
 -13.143  0.0000E+00  0.1200E+02
 -13.133  0.0000E+00  0.1200E+02
 -13.123  0.0000E+00  0.1200E+02
 -13.113  0.0000E+00  0.1200E+02
 -13.103  0.0000E+00  0.1200E+02
 -13.093  0.0000E+00  0.1200E+02
 -13.083  0.0000E+00  0.1200E+02
 -13.073  0.0000E+00  0.1200E+02
 -13.063  0.0000E+00  0.1200E+02
 -13.053  0.0000E+00  0.1200E+02
 -13.043  0.0000E+00  0.1200E+02
 -13.033  0.0000E+00  0.1200E+02
 -13.023  0.0000E+00  0.1200E+02
 -13.013  0.0000E+00  0.1200E+02
 -13.003  0.0000E+00  0.1200E+02
 -12.993  0.0000E+00  0.1200E+02
 -12.983  0.0000E+00  0.1200E+02
 -12.973  0.0000E+00  0.1200E+02
 -12.963  0.0000E+00  0.1200E+02
 -12.953  0.0000E+00  0.1200E+02
 -12.943  0.0000E+00  0.1200E+02
 -12.933  0.0000E+00  0.1200E+02
 -12.923  0.0000E+00  0.1200E+02
 -12.913  0.0000E+00  0.1200E+02
 -12.903  0.0000E+00  0.1200E+02
 -12.893  0.0000E+00  0.1200E+02
 -12.883  0.0000E+00  0.1200E+02
 -12.873  0.0000E+00  0.1200E+02
 -12.863  0.0000E+00  0.1200E+02
 -12.853  0.0000E+00  0.1200E+02
 -12.843  0.0000E+00  0.1200E+02
 -12.833  0.0000E+00  0.1200E+02
 -12.823  0.0000E+00  0.1200E+02
 -12.813  0.0000E+00  0.1200E+02
 -12.803  0.0000E+00  0.1200E+02
 -12.793  0.0000E+00  0.1200E+02
 -12.783  0.0000E+00  0.1200E+02
 -12.773  0.0000E+00  0.1200E+02
 -12.763  0.0000E+00  0.1200E+02
 -12.753  0.0000E+00  0.1200E+02
 -12.743  0.0000E+00  0.1200E+02
 -12.733  0.0000E+00  0.1200E+02
 -12.723  0.0000E+00  0.1200E+02
 -12.713  0.0000E+00  0.1200E+02
 -12.703  0.0000E+00  0.1200E+02
 -12.693  0.0000E+00  0.1200E+02
 -12.683  0.0000E+00  0.1200E+02
 -12.673  0.0000E+00  0.1200E+02
 -12.663  0.0000E+00  0.1200E+02
 -12.653  0.0000E+00  0.1200E+02
 -12.643  0.0000E+00  0.1200E+02
 -12.633  0.0000E+00  0.1200E+02
 -12.623  0.0000E+00  0.1200E+02
 -12.613  0.0000E+00  0.1200E+02
 -12.603  0.0000E+00  0.1200E+02
 -12.593  0.0000E+00  0.1200E+02
 -12.583  0.0000E+00  0.1200E+02
 -12.573  0.0000E+00  0.1200E+02
 -12.563  0.0000E+00  0.1200E+02
 -12.553  0.0000E+00  0.1200E+02
 -12.543  0.0000E+00  0.1200E+02
 -12.533  0.0000E+00  0.1200E+02
 -12.523  0.0000E+00  0.1200E+02
 -12.513  0.0000E+00  0.1200E+02
 -12.503  0.0000E+00  0.1200E+02
 -12.493  0.0000E+00  0.1200E+02
 -12.483  0.0000E+00  0.1200E+02
 -12.473  0.0000E+00  0.1200E+02
 -12.463  0.0000E+00  0.1200E+02
 -12.453  0.0000E+00  0.1200E+02
 -12.443  0.0000E+00  0.1200E+02
 -12.433  0.0000E+00  0.1200E+02
 -12.423  0.0000E+00  0.1200E+02
 -12.413  0.0000E+00  0.1200E+02
 -12.403  0.0000E+00  0.1200E+02
 -12.393  0.0000E+00  0.1200E+02
 -12.383  0.0000E+00  0.1200E+02
 -12.373  0.0000E+00  0.1200E+02
 -12.363  0.0000E+00  0.1200E+02
 -12.353  0.0000E+00  0.1200E+02
 -12.343  0.0000E+00  0.1200E+02
 -12.333  0.0000E+00  0.1200E+02
 -12.323  0.0000E+00  0.1200E+02
 -12.313  0.0000E+00  0.1200E+02
 -12.303  0.0000E+00  0.1200E+02
 -12.293  0.0000E+00  0.1200E+02
 -12.283  0.0000E+00  0.1200E+02
 -12.273  0.0000E+00  0.1200E+02
 -12.263  0.0000E+00  0.1200E+02
 -12.253  0.0000E+00  0.1200E+02
 -12.243  0.0000E+00  0.1200E+02
 -12.233  0.0000E+00  0.1200E+02
 -12.223  0.0000E+00  0.1200E+02
 -12.213  0.0000E+00  0.1200E+02
 -12.203  0.0000E+00  0.1200E+02
 -12.193  0.0000E+00  0.1200E+02
 -12.183  0.0000E+00  0.1200E+02
 -12.173  0.0000E+00  0.1200E+02
 -12.163  0.0000E+00  0.1200E+02
 -12.153  0.0000E+00  0.1200E+02
 -12.143  0.0000E+00  0.1200E+02
 -12.133  0.0000E+00  0.1200E+02
 -12.123  0.0000E+00  0.1200E+02
 -12.113  0.0000E+00  0.1200E+02
 -12.103  0.0000E+00  0.1200E+02
 -12.093  0.0000E+00  0.1200E+02
 -12.083  0.0000E+00  0.1200E+02
 -12.073  0.0000E+00  0.1200E+02
 -12.063  0.0000E+00  0.1200E+02
 -12.053  0.0000E+00  0.1200E+02
 -12.043  0.0000E+00  0.1200E+02
 -12.033  0.0000E+00  0.1200E+02
 -12.023  0.0000E+00  0.1200E+02
 -12.013  0.0000E+00  0.1200E+02
 -12.003  0.0000E+00  0.1200E+02
 -11.993  0.0000E+00  0.1200E+02
 -11.983  0.0000E+00  0.1200E+02
 -11.973  0.0000E+00  0.1200E+02
 -11.963  0.0000E+00  0.1200E+02
 -11.953  0.0000E+00  0.1200E+02
 -11.943  0.0000E+00  0.1200E+02
 -11.933  0.0000E+00  0.1200E+02
 -11.923  0.0000E+00  0.1200E+02
 -11.913  0.0000E+00  0.1200E+02
 -11.903  0.0000E+00  0.1200E+02
 -11.893  0.0000E+00  0.1200E+02
 -11.883  0.0000E+00  0.1200E+02
 -11.873  0.0000E+00  0.1200E+02
 -11.863  0.0000E+00  0.1200E+02
 -11.853  0.0000E+00  0.1200E+02
 -11.843  0.0000E+00  0.1200E+02
 -11.833  0.0000E+00  0.1200E+02
 -11.823  0.0000E+00  0.1200E+02
 -11.813  0.0000E+00  0.1200E+02
 -11.803  0.0000E+00  0.1200E+02
 -11.793  0.0000E+00  0.1200E+02
 -11.783  0.0000E+00  0.1200E+02
 -11.773  0.0000E+00  0.1200E+02
 -11.763  0.0000E+00  0.1200E+02
 -11.753  0.0000E+00  0.1200E+02
 -11.743  0.0000E+00  0.1200E+02
 -11.733  0.0000E+00  0.1200E+02
 -11.723  0.0000E+00  0.1200E+02
 -11.713  0.0000E+00  0.1200E+02
 -11.703  0.0000E+00  0.1200E+02
 -11.693  0.0000E+00  0.1200E+02
 -11.683  0.0000E+00  0.1200E+02
 -11.673  0.0000E+00  0.1200E+02
 -11.663  0.0000E+00  0.1200E+02
 -11.653  0.0000E+00  0.1200E+02
 -11.643  0.0000E+00  0.1200E+02
 -11.633  0.0000E+00  0.1200E+02
 -11.623  0.0000E+00  0.1200E+02
 -11.613  0.0000E+00  0.1200E+02
 -11.603  0.0000E+00  0.1200E+02
 -11.593  0.0000E+00  0.1200E+02
 -11.583  0.0000E+00  0.1200E+02
 -11.573  0.0000E+00  0.1200E+02
 -11.563  0.0000E+00  0.1200E+02
 -11.553  0.0000E+00  0.1200E+02
 -11.543  0.0000E+00  0.1200E+02
 -11.533  0.0000E+00  0.1200E+02
 -11.523  0.0000E+00  0.1200E+02
 -11.513  0.0000E+00  0.1200E+02
 -11.503  0.0000E+00  0.1200E+02
 -11.493  0.0000E+00  0.1200E+02
 -11.483  0.0000E+00  0.1200E+02
 -11.473  0.0000E+00  0.1200E+02
 -11.463  0.0000E+00  0.1200E+02
 -11.453  0.0000E+00  0.1200E+02
 -11.443  0.0000E+00  0.1200E+02
 -11.433  0.0000E+00  0.1200E+02
 -11.423  0.0000E+00  0.1200E+02
 -11.413  0.0000E+00  0.1200E+02
 -11.403  0.0000E+00  0.1200E+02
 -11.393  0.0000E+00  0.1200E+02
 -11.383  0.0000E+00  0.1200E+02
 -11.373  0.0000E+00  0.1200E+02
 -11.363  0.0000E+00  0.1200E+02
 -11.353  0.0000E+00  0.1200E+02
 -11.343  0.0000E+00  0.1200E+02
 -11.333  0.0000E+00  0.1200E+02
 -11.323  0.0000E+00  0.1200E+02
 -11.313  0.0000E+00  0.1200E+02
 -11.303  0.0000E+00  0.1200E+02
 -11.293  0.0000E+00  0.1200E+02
 -11.283  0.0000E+00  0.1200E+02
 -11.273  0.0000E+00  0.1200E+02
 -11.263  0.0000E+00  0.1200E+02
 -11.253  0.0000E+00  0.1200E+02
 -11.243  0.0000E+00  0.1200E+02
 -11.233  0.0000E+00  0.1200E+02
 -11.223  0.0000E+00  0.1200E+02
 -11.213  0.0000E+00  0.1200E+02
 -11.203  0.0000E+00  0.1200E+02
 -11.193  0.0000E+00  0.1200E+02
 -11.183  0.0000E+00  0.1200E+02
 -11.173  0.0000E+00  0.1200E+02
 -11.163  0.0000E+00  0.1200E+02
 -11.153  0.0000E+00  0.1200E+02
 -11.143  0.0000E+00  0.1200E+02
 -11.133  0.0000E+00  0.1200E+02
 -11.123  0.0000E+00  0.1200E+02
 -11.113  0.0000E+00  0.1200E+02
 -11.103  0.0000E+00  0.1200E+02
 -11.093  0.0000E+00  0.1200E+02
 -11.083  0.0000E+00  0.1200E+02
 -11.073  0.0000E+00  0.1200E+02
 -11.063  0.0000E+00  0.1200E+02
 -11.053  0.0000E+00  0.1200E+02
 -11.043  0.0000E+00  0.1200E+02
 -11.033  0.0000E+00  0.1200E+02
 -11.023  0.0000E+00  0.1200E+02
 -11.013  0.0000E+00  0.1200E+02
 -11.003  0.0000E+00  0.1200E+02
 -10.993  0.0000E+00  0.1200E+02
 -10.983  0.0000E+00  0.1200E+02
 -10.973  0.0000E+00  0.1200E+02
 -10.963  0.0000E+00  0.1200E+02
 -10.953  0.0000E+00  0.1200E+02
 -10.943  0.0000E+00  0.1200E+02
 -10.933  0.0000E+00  0.1200E+02
 -10.923  0.0000E+00  0.1200E+02
 -10.913  0.0000E+00  0.1200E+02
 -10.903  0.0000E+00  0.1200E+02
 -10.893  0.0000E+00  0.1200E+02
 -10.883  0.0000E+00  0.1200E+02
 -10.873  0.0000E+00  0.1200E+02
 -10.863  0.0000E+00  0.1200E+02
 -10.853  0.0000E+00  0.1200E+02
 -10.843  0.0000E+00  0.1200E+02
 -10.833  0.0000E+00  0.1200E+02
 -10.823  0.0000E+00  0.1200E+02
 -10.813  0.0000E+00  0.1200E+02
 -10.803  0.0000E+00  0.1200E+02
 -10.793  0.0000E+00  0.1200E+02
 -10.783  0.0000E+00  0.1200E+02
 -10.773  0.0000E+00  0.1200E+02
 -10.763  0.0000E+00  0.1200E+02
 -10.753  0.0000E+00  0.1200E+02
 -10.743  0.0000E+00  0.1200E+02
